# time (ps)	msd (A2)
0.000000000000000000e+00 1.050588140652376551e-03
1.000000000000000000e+00 1.434048743790300229e+00
2.000000000000000000e+00 2.114191805923438139e+00
3.000000000000000000e+00 2.668237643313703611e+00
4.000000000000000000e+00 3.174775531389204986e+00
5.000000000000000000e+00 3.643578619195893875e+00
6.000000000000000000e+00 4.083445722791471333e+00
7.000000000000000000e+00 4.506272030199549583e+00
8.000000000000000000e+00 4.913209438033089960e+00
9.000000000000000000e+00 5.308148283530516487e+00
1.000000000000000000e+01 5.698160528781056833e+00
1.100000000000000000e+01 6.085752010955800984e+00
1.200000000000000000e+01 6.459783922987774041e+00
1.300000000000000000e+01 6.823641553770755763e+00
1.400000000000000000e+01 7.192421480592773086e+00
1.500000000000000000e+01 7.558343922104107548e+00
1.600000000000000000e+01 7.915961972572818972e+00
1.700000000000000000e+01 8.274853872851684500e+00
1.800000000000000000e+01 8.633887617025587602e+00
1.900000000000000000e+01 8.994319783666261614e+00
2.000000000000000000e+01 9.352990167334409577e+00
2.100000000000000000e+01 9.706426315753715173e+00
2.200000000000000000e+01 1.006374360225446019e+01
2.300000000000000000e+01 1.041382129234168552e+01
2.400000000000000000e+01 1.076146319490075420e+01
2.500000000000000000e+01 1.110854388132947257e+01
2.600000000000000000e+01 1.145395072323871055e+01
2.700000000000000000e+01 1.179827712896215353e+01
2.800000000000000000e+01 1.214226644869132166e+01
2.900000000000000000e+01 1.248801284009257806e+01
3.000000000000000000e+01 1.283279137496777622e+01
3.100000000000000000e+01 1.317406106995352566e+01
3.200000000000000000e+01 1.351436546361993329e+01
3.300000000000000000e+01 1.385527762840693988e+01
3.400000000000000000e+01 1.419021374035572158e+01
3.500000000000000000e+01 1.452173141086499442e+01
3.600000000000000000e+01 1.485653884175826711e+01
3.700000000000000000e+01 1.519333437756797878e+01
3.800000000000000000e+01 1.552878267083225694e+01
3.900000000000000000e+01 1.586609924160765139e+01
4.000000000000000000e+01 1.620554961221357004e+01
4.100000000000000000e+01 1.654303830995118574e+01
4.200000000000000000e+01 1.687483063974642050e+01
4.300000000000000000e+01 1.720813977762655256e+01
4.400000000000000000e+01 1.753607755602704188e+01
4.500000000000000000e+01 1.787098742081846936e+01
4.600000000000000000e+01 1.820697252048284653e+01
4.700000000000000000e+01 1.853991670232954547e+01
4.800000000000000000e+01 1.886963348275692454e+01
4.900000000000000000e+01 1.919975402609496129e+01
5.000000000000000000e+01 1.953233515566219225e+01
5.100000000000000000e+01 1.986024805586719921e+01
5.200000000000000000e+01 2.019148463407573146e+01
5.300000000000000000e+01 2.051985467207508052e+01
5.400000000000000000e+01 2.085276233166105087e+01
5.500000000000000000e+01 2.119213154452555159e+01
5.600000000000000000e+01 2.152956615534960250e+01
5.700000000000000000e+01 2.186368854711655629e+01
5.800000000000000000e+01 2.220220113420030827e+01
5.900000000000000000e+01 2.253712027522070471e+01
6.000000000000000000e+01 2.287033279950306053e+01
6.100000000000000000e+01 2.320578867709548021e+01
6.200000000000000000e+01 2.353823245315271606e+01
6.300000000000000000e+01 2.387565441353386220e+01
6.400000000000000000e+01 2.421511835135826729e+01
6.500000000000000000e+01 2.454542674346761899e+01
6.600000000000000000e+01 2.488330615748236596e+01
6.700000000000000000e+01 2.521506368080099492e+01
6.800000000000000000e+01 2.554542330505710979e+01
6.900000000000000000e+01 2.587986468200003642e+01
7.000000000000000000e+01 2.621779522811151608e+01
7.100000000000000000e+01 2.655065668462839668e+01
7.200000000000000000e+01 2.688711433694946251e+01
7.300000000000000000e+01 2.722427626563477432e+01
7.400000000000000000e+01 2.755933813458303305e+01
7.500000000000000000e+01 2.789529424454513773e+01
7.600000000000000000e+01 2.822683824262252017e+01
7.700000000000000000e+01 2.856289284178288668e+01
7.800000000000000000e+01 2.889628584440917791e+01
7.900000000000000000e+01 2.923245083493510776e+01
8.000000000000000000e+01 2.956558868120665196e+01
8.100000000000000000e+01 2.990247797909599115e+01
8.200000000000000000e+01 3.023461644005965709e+01
8.300000000000000000e+01 3.056790003497949826e+01
8.400000000000000000e+01 3.089619512842980953e+01
8.500000000000000000e+01 3.122569472004023794e+01
8.600000000000000000e+01 3.155299966698444791e+01
8.700000000000000000e+01 3.188899879827413386e+01
8.800000000000000000e+01 3.221942384138966275e+01
8.900000000000000000e+01 3.255245340155697420e+01
9.000000000000000000e+01 3.288328404108764147e+01
9.100000000000000000e+01 3.321739086435683674e+01
9.200000000000000000e+01 3.355069762652090049e+01
9.300000000000000000e+01 3.388526808949358582e+01
9.400000000000000000e+01 3.422119004676227405e+01
9.500000000000000000e+01 3.455257587562073240e+01
9.600000000000000000e+01 3.488190187733951575e+01
9.700000000000000000e+01 3.521720418222923144e+01
9.800000000000000000e+01 3.554815244091795279e+01
9.900000000000000000e+01 3.588423730515089716e+01
1.000000000000000000e+02 3.621836471435869242e+01
1.010000000000000000e+02 3.655146866289663166e+01
1.020000000000000000e+02 3.688399661799561358e+01
1.030000000000000000e+02 3.721189290129150606e+01
1.040000000000000000e+02 3.754834251935784550e+01
1.050000000000000000e+02 3.788179372106278464e+01
1.060000000000000000e+02 3.821131713095084592e+01
1.070000000000000000e+02 3.853981948214797626e+01
1.080000000000000000e+02 3.887677759086849960e+01
1.090000000000000000e+02 3.920459479387304924e+01
1.100000000000000000e+02 3.954056035376361677e+01
1.110000000000000000e+02 3.987477362274727000e+01
1.120000000000000000e+02 4.020877674752167508e+01
1.130000000000000000e+02 4.053694460808977595e+01
1.140000000000000000e+02 4.087045228166630295e+01
1.150000000000000000e+02 4.120296024853487182e+01
1.160000000000000000e+02 4.153468700606422459e+01
1.170000000000000000e+02 4.186722182768389189e+01
1.180000000000000000e+02 4.220239026551499251e+01
1.190000000000000000e+02 4.253375546593215972e+01
1.200000000000000000e+02 4.286522659287689407e+01
1.210000000000000000e+02 4.319777901006641940e+01
1.220000000000000000e+02 4.352924517946853911e+01
1.230000000000000000e+02 4.386686221567924804e+01
1.240000000000000000e+02 4.420323903916570885e+01
1.250000000000000000e+02 4.454177247299056575e+01
1.260000000000000000e+02 4.487968131171493269e+01
1.270000000000000000e+02 4.521717186986138159e+01
1.280000000000000000e+02 4.555519259914195374e+01
1.290000000000000000e+02 4.589497074309332447e+01
1.300000000000000000e+02 4.623756698468812942e+01
1.310000000000000000e+02 4.658060999914025047e+01
1.320000000000000000e+02 4.691905013278718428e+01
1.330000000000000000e+02 4.726145848777304792e+01
1.340000000000000000e+02 4.759575866645007380e+01
1.350000000000000000e+02 4.793643279152474435e+01
1.360000000000000000e+02 4.827506435511491389e+01
1.370000000000000000e+02 4.861670771416057590e+01
1.380000000000000000e+02 4.895885472602088839e+01
1.390000000000000000e+02 4.929527688566518151e+01
1.400000000000000000e+02 4.963179912630484836e+01
1.410000000000000000e+02 4.996534368538953430e+01
1.420000000000000000e+02 5.030549377109436904e+01
1.430000000000000000e+02 5.064217384638757125e+01
1.440000000000000000e+02 5.097656074137250215e+01
1.450000000000000000e+02 5.131330206718456566e+01
1.460000000000000000e+02 5.165214268639272177e+01
1.470000000000000000e+02 5.198566728650830981e+01
1.480000000000000000e+02 5.231664097087196552e+01
1.490000000000000000e+02 5.265685858092757599e+01
1.500000000000000000e+02 5.299357733311578755e+01
1.510000000000000000e+02 5.332923813585210837e+01
1.520000000000000000e+02 5.366049826801704370e+01
1.530000000000000000e+02 5.399972082079796110e+01
1.540000000000000000e+02 5.433676120175422142e+01
1.550000000000000000e+02 5.467463639894918259e+01
1.560000000000000000e+02 5.501063980681484367e+01
1.570000000000000000e+02 5.534894823905460015e+01
1.580000000000000000e+02 5.568417325651498828e+01
1.590000000000000000e+02 5.601745536135075554e+01
1.600000000000000000e+02 5.635003362245836200e+01
1.610000000000000000e+02 5.668640015889140926e+01
1.620000000000000000e+02 5.701845176177929631e+01
1.630000000000000000e+02 5.735406975193998136e+01
1.640000000000000000e+02 5.769337593085574412e+01
1.650000000000000000e+02 5.802623276757501714e+01
1.660000000000000000e+02 5.836048743160941399e+01
1.670000000000000000e+02 5.869753609852998721e+01
1.680000000000000000e+02 5.903056393595153395e+01
1.690000000000000000e+02 5.936328523354510622e+01
1.700000000000000000e+02 5.969608089643770654e+01
1.710000000000000000e+02 6.003310269150828304e+01
1.720000000000000000e+02 6.036532426660045303e+01
1.730000000000000000e+02 6.069914967013230722e+01
1.740000000000000000e+02 6.103442788480743530e+01
1.750000000000000000e+02 6.137265099070172170e+01
1.760000000000000000e+02 6.170749123655463109e+01
1.770000000000000000e+02 6.204327348853431090e+01
1.780000000000000000e+02 6.237487954199337281e+01
1.790000000000000000e+02 6.271107279554438918e+01
1.800000000000000000e+02 6.304369233104432624e+01
1.810000000000000000e+02 6.337443566474915002e+01
1.820000000000000000e+02 6.370630423878687765e+01
1.830000000000000000e+02 6.404053716889239922e+01
1.840000000000000000e+02 6.437888940270748606e+01
1.850000000000000000e+02 6.472223673609572359e+01
1.860000000000000000e+02 6.505541782772178294e+01
1.870000000000000000e+02 6.539118486209460457e+01
1.880000000000000000e+02 6.572245663060301979e+01
1.890000000000000000e+02 6.605302721675590760e+01
1.900000000000000000e+02 6.638829580319674051e+01
1.910000000000000000e+02 6.672294442605573295e+01
1.920000000000000000e+02 6.705660614471942438e+01
1.930000000000000000e+02 6.739014494214983131e+01
1.940000000000000000e+02 6.771976058548622746e+01
1.950000000000000000e+02 6.805596426694512502e+01
1.960000000000000000e+02 6.838986559379043229e+01
1.970000000000000000e+02 6.872260218370963969e+01
1.980000000000000000e+02 6.905149365165330266e+01
1.990000000000000000e+02 6.938508492227968816e+01
2.000000000000000000e+02 6.972055906175508255e+01
2.010000000000000000e+02 7.005388379447362013e+01
2.020000000000000000e+02 7.038680412841971190e+01
2.030000000000000000e+02 7.071889764068600925e+01
2.040000000000000000e+02 7.104685711498564160e+01
2.050000000000000000e+02 7.137414744783798426e+01
2.060000000000000000e+02 7.170350744058960402e+01
2.070000000000000000e+02 7.202919603133479143e+01
2.080000000000000000e+02 7.235780417901615635e+01
2.090000000000000000e+02 7.268292740237406235e+01
2.100000000000000000e+02 7.301269242362333500e+01
2.110000000000000000e+02 7.334120263167316978e+01
2.120000000000000000e+02 7.366303451489413590e+01
2.130000000000000000e+02 7.398776548624194049e+01
2.140000000000000000e+02 7.431186791959500226e+01
2.150000000000000000e+02 7.463873661043372465e+01
2.160000000000000000e+02 7.496421609167575184e+01
2.170000000000000000e+02 7.529098827915048275e+01
2.180000000000000000e+02 7.561567690243634843e+01
2.190000000000000000e+02 7.593774180767191240e+01
2.200000000000000000e+02 7.625803855331285774e+01
2.210000000000000000e+02 7.657724260450594045e+01
2.220000000000000000e+02 7.689895012447452416e+01
2.230000000000000000e+02 7.722261472419275208e+01
2.240000000000000000e+02 7.754652037504428108e+01
2.250000000000000000e+02 7.786991412563800452e+01
2.260000000000000000e+02 7.819043668903914579e+01
2.270000000000000000e+02 7.851305745541991143e+01
2.280000000000000000e+02 7.883617455867553758e+01
2.290000000000000000e+02 7.916135485407237127e+01
2.300000000000000000e+02 7.948540694756032110e+01
2.310000000000000000e+02 7.981006998042499845e+01
2.320000000000000000e+02 8.013696533903377883e+01
2.330000000000000000e+02 8.046437528877349621e+01
2.340000000000000000e+02 8.078572024412905250e+01
2.350000000000000000e+02 8.111015610887824323e+01
2.360000000000000000e+02 8.143300701473893355e+01
2.370000000000000000e+02 8.175254269213003511e+01
2.380000000000000000e+02 8.207674339677105024e+01
2.390000000000000000e+02 8.239975469908846151e+01
2.400000000000000000e+02 8.272238054052907330e+01
2.410000000000000000e+02 8.304396294409261259e+01
2.420000000000000000e+02 8.336833625252957347e+01
2.430000000000000000e+02 8.368904543197351131e+01
2.440000000000000000e+02 8.401179829309292302e+01
2.450000000000000000e+02 8.433715938272682422e+01
2.460000000000000000e+02 8.466072727033730416e+01
2.470000000000000000e+02 8.498771772059740215e+01
2.480000000000000000e+02 8.531337835886650112e+01
2.490000000000000000e+02 8.564096879942592011e+01
2.500000000000000000e+02 8.597145981264914383e+01
2.510000000000000000e+02 8.629701255403587368e+01
2.520000000000000000e+02 8.662040495238176163e+01
2.530000000000000000e+02 8.694213232552637294e+01
2.540000000000000000e+02 8.726548653887853391e+01
2.550000000000000000e+02 8.758859138954350954e+01
2.560000000000000000e+02 8.790910834399464591e+01
2.570000000000000000e+02 8.822774066270069682e+01
2.580000000000000000e+02 8.855265569915933099e+01
2.590000000000000000e+02 8.887599276475482668e+01
2.600000000000000000e+02 8.920142886756570988e+01
2.610000000000000000e+02 8.951859507123964477e+01
2.620000000000000000e+02 8.984410186073336035e+01
2.630000000000000000e+02 9.016833337143407334e+01
2.640000000000000000e+02 9.048891871458094727e+01
2.650000000000000000e+02 9.080891131054370646e+01
2.660000000000000000e+02 9.113210607118247708e+01
2.670000000000000000e+02 9.145503240227235153e+01
2.680000000000000000e+02 9.177803855278115464e+01
2.690000000000000000e+02 9.210324458602211450e+01
2.700000000000000000e+02 9.242819433971578746e+01
2.710000000000000000e+02 9.275689549775428588e+01
2.720000000000000000e+02 9.308229367377619212e+01
2.730000000000000000e+02 9.341414708167660308e+01
2.740000000000000000e+02 9.374365509986914446e+01
2.750000000000000000e+02 9.407340235201620260e+01
2.760000000000000000e+02 9.439888696003656321e+01
2.770000000000000000e+02 9.472103627335000908e+01
2.780000000000000000e+02 9.504590164743547120e+01
2.790000000000000000e+02 9.536934678655042319e+01
2.800000000000000000e+02 9.569141961278315023e+01
2.810000000000000000e+02 9.601758356162126518e+01
2.820000000000000000e+02 9.634409514669918906e+01
2.830000000000000000e+02 9.667144743502690574e+01
2.840000000000000000e+02 9.699747682426574613e+01
2.850000000000000000e+02 9.732386343290336583e+01
2.860000000000000000e+02 9.765264286168523711e+01
2.870000000000000000e+02 9.797413618194225648e+01
2.880000000000000000e+02 9.829255986616369967e+01
2.890000000000000000e+02 9.861819361512186788e+01
2.900000000000000000e+02 9.894662344143301880e+01
2.910000000000000000e+02 9.927059070284538222e+01
2.920000000000000000e+02 9.959436545104279048e+01
2.930000000000000000e+02 9.991968132650883661e+01
2.940000000000000000e+02 1.002419961759561602e+02
2.950000000000000000e+02 1.005638485601047023e+02
2.960000000000000000e+02 1.008863367874750310e+02
2.970000000000000000e+02 1.012072285534778615e+02
2.980000000000000000e+02 1.015308609827817463e+02
2.990000000000000000e+02 1.018509027342023074e+02
3.000000000000000000e+02 1.021769319699726708e+02
3.010000000000000000e+02 1.024999435817527456e+02
3.020000000000000000e+02 1.028191431024009148e+02
3.030000000000000000e+02 1.031436759264073117e+02
3.040000000000000000e+02 1.034686604554188563e+02
3.050000000000000000e+02 1.037931148122781764e+02
3.060000000000000000e+02 1.041204357293238871e+02
3.070000000000000000e+02 1.044502554548916322e+02
3.080000000000000000e+02 1.047815418469492244e+02
3.090000000000000000e+02 1.051085817524068489e+02
3.100000000000000000e+02 1.054362883717374189e+02
3.110000000000000000e+02 1.057580899006145074e+02
3.120000000000000000e+02 1.060772866541959729e+02
3.130000000000000000e+02 1.063986427173638845e+02
3.140000000000000000e+02 1.067208164707823244e+02
3.150000000000000000e+02 1.070455916478907596e+02
3.160000000000000000e+02 1.073714756054673245e+02
3.170000000000000000e+02 1.077018584002531014e+02
3.180000000000000000e+02 1.080270542515745404e+02
3.190000000000000000e+02 1.083459202711354834e+02
3.200000000000000000e+02 1.086690257188222404e+02
3.210000000000000000e+02 1.089922506957784236e+02
3.220000000000000000e+02 1.093155430465370728e+02
3.230000000000000000e+02 1.096392938044829890e+02
3.240000000000000000e+02 1.099606624141911198e+02
3.250000000000000000e+02 1.102831187776304631e+02
3.260000000000000000e+02 1.106044854212337754e+02
3.270000000000000000e+02 1.109276823272767984e+02
3.280000000000000000e+02 1.112518013271228341e+02
3.290000000000000000e+02 1.115788114091208314e+02
3.300000000000000000e+02 1.119032591920406929e+02
3.310000000000000000e+02 1.122271633382828071e+02
3.320000000000000000e+02 1.125547227053728392e+02
3.330000000000000000e+02 1.128816143497142548e+02
3.340000000000000000e+02 1.132127215386437200e+02
3.350000000000000000e+02 1.135377093504745289e+02
3.360000000000000000e+02 1.138600016713045306e+02
3.370000000000000000e+02 1.141865756049795664e+02
3.380000000000000000e+02 1.145130655669749302e+02
3.390000000000000000e+02 1.148381128401174607e+02
3.400000000000000000e+02 1.151603935540447736e+02
3.410000000000000000e+02 1.154885577878363989e+02
3.420000000000000000e+02 1.158156158886603748e+02
3.430000000000000000e+02 1.161444684528757989e+02
3.440000000000000000e+02 1.164723857459202492e+02
3.450000000000000000e+02 1.167991469485595530e+02
3.460000000000000000e+02 1.171234409503006333e+02
3.470000000000000000e+02 1.174485026729981456e+02
3.480000000000000000e+02 1.177702728139421993e+02
3.490000000000000000e+02 1.180962860592959061e+02
3.500000000000000000e+02 1.184211397796516252e+02
3.510000000000000000e+02 1.187417092447089573e+02
3.520000000000000000e+02 1.190664430430505831e+02
3.530000000000000000e+02 1.193875467566970627e+02
3.540000000000000000e+02 1.197066536870359670e+02
3.550000000000000000e+02 1.200296621106383554e+02
3.560000000000000000e+02 1.203501144823376166e+02
3.570000000000000000e+02 1.206749407127185663e+02
3.580000000000000000e+02 1.209974342917197561e+02
3.590000000000000000e+02 1.213236247808874850e+02
3.600000000000000000e+02 1.216496400625207599e+02
3.610000000000000000e+02 1.219685578896231704e+02
3.620000000000000000e+02 1.222937298469908143e+02
3.630000000000000000e+02 1.226200011457037249e+02
3.640000000000000000e+02 1.229413204761366813e+02
3.650000000000000000e+02 1.232673795066634881e+02
3.660000000000000000e+02 1.235936394257810633e+02
3.670000000000000000e+02 1.239175193017448890e+02
3.680000000000000000e+02 1.242429769320329882e+02
3.690000000000000000e+02 1.245690997473422641e+02
3.700000000000000000e+02 1.248921194915479305e+02
3.710000000000000000e+02 1.252157852673860958e+02
3.720000000000000000e+02 1.255423227907271553e+02
3.730000000000000000e+02 1.258638871154826262e+02
3.740000000000000000e+02 1.261875716015795632e+02
3.750000000000000000e+02 1.265167811788708718e+02
3.760000000000000000e+02 1.268468576457575097e+02
3.770000000000000000e+02 1.271748856360675433e+02
3.780000000000000000e+02 1.275022085854530332e+02
3.790000000000000000e+02 1.278274676437045656e+02
3.800000000000000000e+02 1.281547559393792710e+02
3.810000000000000000e+02 1.284787759681092041e+02
3.820000000000000000e+02 1.288040153501994780e+02
3.830000000000000000e+02 1.291274792495021018e+02
3.840000000000000000e+02 1.294525944336008649e+02
3.850000000000000000e+02 1.297748491827644841e+02
3.860000000000000000e+02 1.301004318845134833e+02
3.870000000000000000e+02 1.304183114086138460e+02
3.880000000000000000e+02 1.307391056621366658e+02
3.890000000000000000e+02 1.310623035866697421e+02
3.900000000000000000e+02 1.313838216377205583e+02
3.910000000000000000e+02 1.317067553821368620e+02
3.920000000000000000e+02 1.320285615712599281e+02
3.930000000000000000e+02 1.323536203342245301e+02
3.940000000000000000e+02 1.326762707013586464e+02
3.950000000000000000e+02 1.330032441318696783e+02
3.960000000000000000e+02 1.333232453802537236e+02
3.970000000000000000e+02 1.336453668714579237e+02
3.980000000000000000e+02 1.339651978391698322e+02
