# time (ps)	msd (pm2)
0.000000000000000000e+00 9.719419340533822036e-04
1.000000000000000000e+00 1.433040869191014144e+00
2.000000000000000000e+00 2.112800605615130056e+00
3.000000000000000000e+00 2.664540876158616456e+00
4.000000000000000000e+00 3.169894882237889178e+00
5.000000000000000000e+00 3.633190391304624178e+00
6.000000000000000000e+00 4.069008479661549771e+00
7.000000000000000000e+00 4.486437036960712277e+00
8.000000000000000000e+00 4.888030232399050767e+00
9.000000000000000000e+00 5.278506823142763871e+00
1.000000000000000000e+01 5.666586867415984052e+00
1.100000000000000000e+01 6.051988770323722733e+00
1.200000000000000000e+01 6.421122850382886327e+00
1.300000000000000000e+01 6.781854288227570748e+00
1.400000000000000000e+01 7.148363776470802122e+00
1.500000000000000000e+01 7.512368487927892247e+00
1.600000000000000000e+01 7.868957298465765859e+00
1.700000000000000000e+01 8.225595291584841817e+00
1.800000000000000000e+01 8.582223879736165628e+00
1.900000000000000000e+01 8.937660667104799117e+00
2.000000000000000000e+01 9.293915307451593222e+00
2.100000000000000000e+01 9.643301731486372930e+00
2.200000000000000000e+01 9.997437783472149064e+00
2.300000000000000000e+01 1.034408863585041516e+01
2.400000000000000000e+01 1.068698978913390896e+01
2.500000000000000000e+01 1.102716472368980583e+01
2.600000000000000000e+01 1.136361626274770842e+01
2.700000000000000000e+01 1.169953018592251048e+01
2.800000000000000000e+01 1.203535238953612208e+01
2.900000000000000000e+01 1.237456159703037706e+01
3.000000000000000000e+01 1.271500542892727026e+01
3.100000000000000000e+01 1.305004279764385444e+01
3.200000000000000000e+01 1.338180068182792937e+01
3.300000000000000000e+01 1.371720461991554885e+01
3.400000000000000000e+01 1.404668879179962460e+01
3.500000000000000000e+01 1.437002002742234197e+01
3.600000000000000000e+01 1.469631708281850280e+01
3.700000000000000000e+01 1.502893192653313470e+01
3.800000000000000000e+01 1.535747386091676248e+01
3.900000000000000000e+01 1.568787290093220399e+01
4.000000000000000000e+01 1.601994874592520546e+01
4.100000000000000000e+01 1.635037839889731970e+01
4.200000000000000000e+01 1.667793652098815116e+01
4.300000000000000000e+01 1.700499495194006272e+01
4.400000000000000000e+01 1.732530487441956168e+01
4.500000000000000000e+01 1.765490018447248843e+01
4.600000000000000000e+01 1.798580883690668486e+01
4.700000000000000000e+01 1.831625374169982123e+01
4.800000000000000000e+01 1.863997781824916089e+01
4.900000000000000000e+01 1.896358024970578882e+01
5.000000000000000000e+01 1.928767302098915692e+01
5.100000000000000000e+01 1.960949369312137591e+01
5.200000000000000000e+01 1.993642745167338148e+01
5.300000000000000000e+01 2.025717368796219020e+01
5.400000000000000000e+01 2.058439514986316610e+01
5.500000000000000000e+01 2.091900477137576786e+01
5.600000000000000000e+01 2.124778247962337829e+01
5.700000000000000000e+01 2.157103537236469393e+01
5.800000000000000000e+01 2.189872541654270677e+01
5.900000000000000000e+01 2.222660029389356851e+01
6.000000000000000000e+01 2.254916559692587441e+01
6.100000000000000000e+01 2.287821320758243715e+01
6.200000000000000000e+01 2.320379909447808231e+01
6.300000000000000000e+01 2.353394426728187838e+01
6.400000000000000000e+01 2.386340426934717129e+01
6.500000000000000000e+01 2.418402979620887550e+01
6.600000000000000000e+01 2.451114639094978642e+01
6.700000000000000000e+01 2.482968154070408673e+01
6.800000000000000000e+01 2.515143458642396368e+01
6.900000000000000000e+01 2.547538068511580178e+01
7.000000000000000000e+01 2.580427565894366637e+01
7.100000000000000000e+01 2.612669365832419643e+01
7.200000000000000000e+01 2.645383624296831471e+01
7.300000000000000000e+01 2.678345619699219071e+01
7.400000000000000000e+01 2.710575896831507592e+01
7.500000000000000000e+01 2.743104174771558590e+01
7.600000000000000000e+01 2.774938791373692837e+01
7.700000000000000000e+01 2.807322000972198239e+01
7.800000000000000000e+01 2.839755871167565360e+01
7.900000000000000000e+01 2.872135093843505160e+01
8.000000000000000000e+01 2.904211417436391329e+01
8.100000000000000000e+01 2.936729769318754890e+01
8.200000000000000000e+01 2.968657316797869683e+01
8.300000000000000000e+01 3.000616896728592309e+01
8.400000000000000000e+01 3.032025647647314415e+01
8.500000000000000000e+01 3.063478273098690252e+01
8.600000000000000000e+01 3.094807547128722902e+01
8.700000000000000000e+01 3.127531138583399439e+01
8.800000000000000000e+01 3.159222264598213314e+01
8.900000000000000000e+01 3.191258451706811172e+01
9.000000000000000000e+01 3.222720389852761969e+01
9.100000000000000000e+01 3.254668042278613882e+01
9.200000000000000000e+01 3.286802419946392462e+01
9.300000000000000000e+01 3.318970767840872327e+01
9.400000000000000000e+01 3.351077274786734250e+01
9.500000000000000000e+01 3.383101901107220755e+01
9.600000000000000000e+01 3.414961451458172093e+01
9.700000000000000000e+01 3.447464490118640157e+01
9.800000000000000000e+01 3.479557844670864597e+01
9.900000000000000000e+01 3.511949986265583590e+01
1.000000000000000000e+02 3.543966900783885876e+01
1.010000000000000000e+02 3.576396800890154992e+01
1.020000000000000000e+02 3.608490713023919483e+01
1.030000000000000000e+02 3.640142991453470245e+01
1.040000000000000000e+02 3.672586703217493920e+01
1.050000000000000000e+02 3.704599643401715525e+01
1.060000000000000000e+02 3.736432647311732325e+01
1.070000000000000000e+02 3.768218527185305788e+01
1.080000000000000000e+02 3.800949734930124890e+01
1.090000000000000000e+02 3.832599347546585022e+01
1.100000000000000000e+02 3.865273821661654097e+01
1.110000000000000000e+02 3.897822344038344511e+01
1.120000000000000000e+02 3.930385779656458567e+01
1.130000000000000000e+02 3.961957154421512683e+01
1.140000000000000000e+02 3.994464107622788873e+01
1.150000000000000000e+02 4.027022250897744726e+01
1.160000000000000000e+02 4.059470928017437785e+01
1.170000000000000000e+02 4.091932001183300116e+01
1.180000000000000000e+02 4.124671737148521089e+01
1.190000000000000000e+02 4.156963100810770584e+01
1.200000000000000000e+02 4.189216754270278642e+01
1.210000000000000000e+02 4.221476439115395607e+01
1.220000000000000000e+02 4.253607134170771786e+01
1.230000000000000000e+02 4.286657740947536865e+01
1.240000000000000000e+02 4.319508756156344731e+01
1.250000000000000000e+02 4.352765350531268496e+01
1.260000000000000000e+02 4.385805043838141870e+01
1.270000000000000000e+02 4.418899247628265670e+01
1.280000000000000000e+02 4.451807948352782773e+01
1.290000000000000000e+02 4.484853799060832102e+01
1.300000000000000000e+02 4.518600762751815836e+01
1.310000000000000000e+02 4.552500486514755806e+01
1.320000000000000000e+02 4.585913283919656891e+01
1.330000000000000000e+02 4.619765020888751650e+01
1.340000000000000000e+02 4.652690407411487428e+01
1.350000000000000000e+02 4.686475306811154695e+01
1.360000000000000000e+02 4.719524706349230314e+01
1.370000000000000000e+02 4.752945929698402949e+01
1.380000000000000000e+02 4.786395356728633743e+01
1.390000000000000000e+02 4.819355210826604008e+01
1.400000000000000000e+02 4.852086340893340122e+01
1.410000000000000000e+02 4.884561414292517867e+01
1.420000000000000000e+02 4.917683068055514894e+01
1.430000000000000000e+02 4.950733191720682669e+01
1.440000000000000000e+02 4.983659892180943274e+01
1.450000000000000000e+02 5.016898523834362322e+01
1.460000000000000000e+02 5.050194026040902884e+01
1.470000000000000000e+02 5.082894522820634364e+01
1.480000000000000000e+02 5.115075510616738796e+01
1.490000000000000000e+02 5.148298688725467542e+01
1.500000000000000000e+02 5.181171334459848765e+01
1.510000000000000000e+02 5.213909194586011608e+01
1.520000000000000000e+02 5.245876072035741089e+01
1.530000000000000000e+02 5.279084056100268185e+01
1.540000000000000000e+02 5.311975380484830112e+01
1.550000000000000000e+02 5.345065822582645154e+01
1.560000000000000000e+02 5.377833430832467343e+01
1.570000000000000000e+02 5.410460507034259336e+01
1.580000000000000000e+02 5.443289094746920398e+01
1.590000000000000000e+02 5.475673034299977360e+01
1.600000000000000000e+02 5.507909318282004563e+01
1.610000000000000000e+02 5.540719987584671458e+01
1.620000000000000000e+02 5.572966513775890718e+01
1.630000000000000000e+02 5.605948061125739201e+01
1.640000000000000000e+02 5.639387405251164864e+01
1.650000000000000000e+02 5.671679225069294006e+01
1.660000000000000000e+02 5.704393716775722822e+01
1.670000000000000000e+02 5.737125721393121580e+01
1.680000000000000000e+02 5.769368094082045673e+01
1.690000000000000000e+02 5.801720454441231567e+01
1.700000000000000000e+02 5.834266430689175564e+01
1.710000000000000000e+02 5.867124983105682645e+01
1.720000000000000000e+02 5.899698055296332910e+01
1.730000000000000000e+02 5.931926428198200796e+01
1.740000000000000000e+02 5.964716900200011196e+01
1.750000000000000000e+02 5.997651090082462133e+01
1.760000000000000000e+02 6.030088001245371743e+01
1.770000000000000000e+02 6.062510051972493130e+01
1.780000000000000000e+02 6.094329617418078016e+01
1.790000000000000000e+02 6.126837739678963857e+01
1.800000000000000000e+02 6.158418503942522193e+01
1.810000000000000000e+02 6.190186080128261636e+01
1.820000000000000000e+02 6.221691206189666445e+01
1.830000000000000000e+02 6.253823107116745206e+01
1.840000000000000000e+02 6.286602784817839762e+01
1.850000000000000000e+02 6.319885208123310605e+01
1.860000000000000000e+02 6.351812973507679061e+01
1.870000000000000000e+02 6.384073848539557616e+01
1.880000000000000000e+02 6.416017073830548156e+01
1.890000000000000000e+02 6.448092623689191782e+01
1.900000000000000000e+02 6.480531295738076381e+01
1.910000000000000000e+02 6.512632717434330232e+01
1.920000000000000000e+02 6.544320177198076749e+01
1.930000000000000000e+02 6.576319731132939239e+01
1.940000000000000000e+02 6.607551840795767362e+01
1.950000000000000000e+02 6.639903475645981246e+01
1.960000000000000000e+02 6.671362685555102701e+01
1.970000000000000000e+02 6.703002138298747070e+01
1.980000000000000000e+02 6.734223431876823440e+01
1.990000000000000000e+02 6.766038852560062367e+01
2.000000000000000000e+02 6.798285709516576958e+01
2.010000000000000000e+02 6.830199283178320968e+01
2.020000000000000000e+02 6.862031656074334762e+01
2.030000000000000000e+02 6.893920473596665488e+01
2.040000000000000000e+02 6.925337906567337143e+01
2.050000000000000000e+02 6.956317819369158428e+01
2.060000000000000000e+02 6.987615266073804321e+01
2.070000000000000000e+02 7.018583741980066293e+01
2.080000000000000000e+02 7.049734275727081467e+01
2.090000000000000000e+02 7.080595823898654828e+01
2.100000000000000000e+02 7.112055183619048648e+01
2.110000000000000000e+02 7.143488088012315984e+01
2.120000000000000000e+02 7.174086917635243310e+01
2.130000000000000000e+02 7.204910560037873779e+01
2.140000000000000000e+02 7.235525596479044452e+01
2.150000000000000000e+02 7.266314894200274921e+01
2.160000000000000000e+02 7.297014516604420464e+01
2.170000000000000000e+02 7.328035896258212745e+01
2.180000000000000000e+02 7.358735440681114426e+01
2.190000000000000000e+02 7.389060863892781583e+01
2.200000000000000000e+02 7.419225113818703221e+01
2.210000000000000000e+02 7.449561329998921622e+01
2.220000000000000000e+02 7.480123239714428962e+01
2.230000000000000000e+02 7.510720179683947606e+01
2.240000000000000000e+02 7.541333404822626107e+01
2.250000000000000000e+02 7.571686708937423305e+01
2.260000000000000000e+02 7.601923101389917292e+01
2.270000000000000000e+02 7.632217933475033078e+01
2.280000000000000000e+02 7.662847574623896207e+01
2.290000000000000000e+02 7.693427219200820844e+01
2.300000000000000000e+02 7.723977087941814546e+01
2.310000000000000000e+02 7.755000655604060000e+01
2.320000000000000000e+02 7.786104462655781333e+01
2.330000000000000000e+02 7.817222007770644154e+01
2.340000000000000000e+02 7.847212412348922328e+01
2.350000000000000000e+02 7.878147070335297997e+01
2.360000000000000000e+02 7.909201832727845272e+01
2.370000000000000000e+02 7.939097513484938418e+01
2.380000000000000000e+02 7.969921310048978569e+01
2.390000000000000000e+02 8.000632096655984071e+01
2.400000000000000000e+02 8.031354620966527591e+01
2.410000000000000000e+02 8.061997467639898218e+01
2.420000000000000000e+02 8.092968541772842173e+01
2.430000000000000000e+02 8.123386088070402877e+01
2.440000000000000000e+02 8.154041334023386867e+01
2.450000000000000000e+02 8.185301656024194017e+01
2.460000000000000000e+02 8.216047339986070597e+01
2.470000000000000000e+02 8.247308261298471166e+01
2.480000000000000000e+02 8.278332990132149405e+01
2.490000000000000000e+02 8.309426901718346414e+01
2.500000000000000000e+02 8.341001194125600193e+01
2.510000000000000000e+02 8.372079644916590269e+01
2.520000000000000000e+02 8.402898936822543874e+01
2.530000000000000000e+02 8.433453894044896515e+01
2.540000000000000000e+02 8.464137505575371279e+01
2.550000000000000000e+02 8.494773851782116481e+01
2.560000000000000000e+02 8.524910237273743974e+01
2.570000000000000000e+02 8.555124102995925739e+01
2.580000000000000000e+02 8.585725017660591618e+01
2.590000000000000000e+02 8.616095198735894201e+01
2.600000000000000000e+02 8.646740714550770690e+01
2.610000000000000000e+02 8.676535931933641166e+01
2.620000000000000000e+02 8.707507707868327884e+01
2.630000000000000000e+02 8.738042263996965175e+01
2.640000000000000000e+02 8.768407914052193064e+01
2.650000000000000000e+02 8.798605090397046524e+01
2.660000000000000000e+02 8.829241393604360155e+01
2.670000000000000000e+02 8.859388974864003785e+01
2.680000000000000000e+02 8.889864341437389328e+01
2.690000000000000000e+02 8.920647213915715668e+01
2.700000000000000000e+02 8.951334082200010300e+01
2.710000000000000000e+02 8.982605353938750170e+01
2.720000000000000000e+02 9.013158294527946168e+01
2.730000000000000000e+02 9.044477690570201389e+01
2.740000000000000000e+02 9.075406861672699677e+01
2.750000000000000000e+02 9.106289884607086549e+01
2.760000000000000000e+02 9.136715680635393255e+01
2.770000000000000000e+02 9.166661724842832371e+01
2.780000000000000000e+02 9.197399284788090768e+01
2.790000000000000000e+02 9.227742333337108960e+01
2.800000000000000000e+02 9.258135978835981916e+01
2.810000000000000000e+02 9.289031830187137473e+01
2.820000000000000000e+02 9.319998786275253622e+01
2.830000000000000000e+02 9.350834065520645311e+01
2.840000000000000000e+02 9.381673072707229721e+01
2.850000000000000000e+02 9.412398908861524660e+01
2.860000000000000000e+02 9.443032055534165181e+01
2.870000000000000000e+02 9.473173764133068175e+01
2.880000000000000000e+02 9.503076152412418764e+01
2.890000000000000000e+02 9.533876732408187138e+01
2.900000000000000000e+02 9.564945457827128905e+01
2.910000000000000000e+02 9.595658439875339241e+01
2.920000000000000000e+02 9.626373207965522738e+01
2.930000000000000000e+02 9.657228403308936038e+01
2.940000000000000000e+02 9.687597388876635307e+01
2.950000000000000000e+02 9.717919450056811570e+01
2.960000000000000000e+02 9.748230034599504279e+01
2.970000000000000000e+02 9.778302671749624153e+01
2.980000000000000000e+02 9.808693947286545267e+01
2.990000000000000000e+02 9.838734780022923587e+01
3.000000000000000000e+02 9.869615249043677352e+01
3.010000000000000000e+02 9.900017798671166247e+01
3.020000000000000000e+02 9.930212203827878170e+01
3.030000000000000000e+02 9.960756166400275902e+01
3.040000000000000000e+02 9.991542510393769305e+01
3.050000000000000000e+02 1.002231973670907053e+02
3.060000000000000000e+02 1.005325000031023137e+02
3.070000000000000000e+02 1.008471548501944142e+02
3.080000000000000000e+02 1.011619914097612281e+02
3.090000000000000000e+02 1.014725484163538454e+02
3.100000000000000000e+02 1.017860734545840842e+02
3.110000000000000000e+02 1.020925037279555738e+02
3.120000000000000000e+02 1.023954832535608546e+02
3.130000000000000000e+02 1.027004938157925551e+02
3.140000000000000000e+02 1.030057758402677166e+02
3.150000000000000000e+02 1.033150654617182482e+02
3.160000000000000000e+02 1.036240727477194525e+02
3.170000000000000000e+02 1.039389078040601930e+02
3.180000000000000000e+02 1.042482747811683339e+02
3.190000000000000000e+02 1.045520016368467537e+02
3.200000000000000000e+02 1.048560982340247705e+02
3.210000000000000000e+02 1.051624676553892357e+02
3.220000000000000000e+02 1.054709031312421814e+02
3.230000000000000000e+02 1.057789395324841450e+02
3.240000000000000000e+02 1.060810018221384041e+02
3.250000000000000000e+02 1.063835821099053476e+02
3.260000000000000000e+02 1.066858311527988121e+02
3.270000000000000000e+02 1.069913133235617551e+02
3.280000000000000000e+02 1.072981999092531140e+02
3.290000000000000000e+02 1.076091529357148460e+02
3.300000000000000000e+02 1.079162706638270919e+02
3.310000000000000000e+02 1.082228013625404373e+02
3.320000000000000000e+02 1.085344365003447820e+02
3.330000000000000000e+02 1.088443592151503196e+02
3.340000000000000000e+02 1.091628057505330105e+02
3.350000000000000000e+02 1.094702890434551961e+02
3.360000000000000000e+02 1.097766691044249399e+02
3.370000000000000000e+02 1.100863337138379592e+02
3.380000000000000000e+02 1.104016336341650373e+02
3.390000000000000000e+02 1.107091858447950727e+02
3.400000000000000000e+02 1.110119174432939957e+02
3.410000000000000000e+02 1.113206446162904086e+02
3.420000000000000000e+02 1.116283421752054466e+02
3.430000000000000000e+02 1.119405531133464109e+02
3.440000000000000000e+02 1.122502039380057113e+02
3.450000000000000000e+02 1.125594796757587659e+02
3.460000000000000000e+02 1.128629069927703057e+02
3.470000000000000000e+02 1.131711746247263619e+02
3.480000000000000000e+02 1.134751199175638448e+02
3.490000000000000000e+02 1.137859929947285593e+02
3.500000000000000000e+02 1.140933371694752765e+02
3.510000000000000000e+02 1.143972523020498215e+02
3.520000000000000000e+02 1.147034545282131575e+02
3.530000000000000000e+02 1.150050339366207623e+02
3.540000000000000000e+02 1.153036878176198314e+02
3.550000000000000000e+02 1.156084394499225994e+02
3.560000000000000000e+02 1.159120425937613135e+02
3.570000000000000000e+02 1.162183907632390572e+02
3.580000000000000000e+02 1.165249548466765788e+02
3.590000000000000000e+02 1.168368395886777904e+02
3.600000000000000000e+02 1.171507822377524377e+02
3.610000000000000000e+02 1.174518949310222808e+02
3.620000000000000000e+02 1.177604792028319736e+02
3.630000000000000000e+02 1.180715685972093780e+02
3.640000000000000000e+02 1.183792305572748660e+02
3.650000000000000000e+02 1.186925433660219937e+02
3.660000000000000000e+02 1.190050610874291408e+02
3.670000000000000000e+02 1.193129308401723137e+02
3.680000000000000000e+02 1.196242406385093631e+02
3.690000000000000000e+02 1.199362253926064170e+02
3.700000000000000000e+02 1.202430812650282945e+02
3.710000000000000000e+02 1.205521508377961339e+02
3.720000000000000000e+02 1.208646631436905494e+02
3.730000000000000000e+02 1.211693591277670095e+02
3.740000000000000000e+02 1.214763691873824740e+02
3.750000000000000000e+02 1.217893921937723150e+02
3.760000000000000000e+02 1.221048434175391577e+02
3.770000000000000000e+02 1.224209464394922833e+02
3.780000000000000000e+02 1.227343392541814922e+02
3.790000000000000000e+02 1.230448315563041035e+02
3.800000000000000000e+02 1.233564914595703925e+02
3.810000000000000000e+02 1.236647172824928447e+02
3.820000000000000000e+02 1.239728485366719468e+02
3.830000000000000000e+02 1.242820303156031656e+02
3.840000000000000000e+02 1.245886434366060485e+02
3.850000000000000000e+02 1.248929351926902882e+02
3.860000000000000000e+02 1.252032901126102900e+02
3.870000000000000000e+02 1.255029815066465773e+02
3.880000000000000000e+02 1.258088866021820138e+02
3.890000000000000000e+02 1.261165030587970222e+02
3.900000000000000000e+02 1.264219944562912303e+02
3.910000000000000000e+02 1.267320316579905182e+02
3.920000000000000000e+02 1.270390232835163999e+02
3.930000000000000000e+02 1.273519151946278356e+02
3.940000000000000000e+02 1.276589481446531522e+02
3.950000000000000000e+02 1.279712100925800371e+02
3.960000000000000000e+02 1.282763337683580289e+02
3.970000000000000000e+02 1.285849570544090739e+02
3.980000000000000000e+02 1.288931477253614446e+02
