# time (ps)	msd (A2)
0.000000000000000000e+00 1.214610394266523591e-03
1.000000000000000000e+00 1.434593018669060527e+00
2.000000000000000000e+00 2.114615822518429056e+00
3.000000000000000000e+00 2.670136143079553381e+00
4.000000000000000000e+00 3.177459975195613406e+00
5.000000000000000000e+00 3.647642121867402665e+00
6.000000000000000000e+00 4.090402804569404083e+00
7.000000000000000000e+00 4.514997041738172179e+00
8.000000000000000000e+00 4.921757978923814392e+00
9.000000000000000000e+00 5.319095067548613720e+00
1.000000000000000000e+01 5.710234596792591155e+00
1.100000000000000000e+01 6.100158482562744844e+00
1.200000000000000000e+01 6.475954843590309373e+00
1.300000000000000000e+01 6.845263300789337535e+00
1.400000000000000000e+01 7.216506546381203258e+00
1.500000000000000000e+01 7.584993355510003532e+00
1.600000000000000000e+01 7.946267447751194091e+00
1.700000000000000000e+01 8.307501767020470496e+00
1.800000000000000000e+01 8.666356956617994101e+00
1.900000000000000000e+01 9.028037453840815019e+00
2.000000000000000000e+01 9.385080507723609244e+00
2.100000000000000000e+01 9.739207831760170464e+00
2.200000000000000000e+01 1.009578354082361784e+01
2.300000000000000000e+01 1.044559865909843133e+01
2.400000000000000000e+01 1.079410483604126902e+01
2.500000000000000000e+01 1.114425533549325742e+01
2.600000000000000000e+01 1.149256400506795650e+01
2.700000000000000000e+01 1.183915198093650112e+01
2.800000000000000000e+01 1.218586630989673658e+01
2.900000000000000000e+01 1.253604652797372232e+01
3.000000000000000000e+01 1.288146612903870825e+01
3.100000000000000000e+01 1.322550466617829557e+01
3.200000000000000000e+01 1.356787155262940381e+01
3.300000000000000000e+01 1.390952003514594537e+01
3.400000000000000000e+01 1.424707333324218972e+01
3.500000000000000000e+01 1.458196396109006088e+01
3.600000000000000000e+01 1.492271337062918235e+01
3.700000000000000000e+01 1.526193953993456098e+01
3.800000000000000000e+01 1.559927394006908763e+01
3.900000000000000000e+01 1.593666032932261167e+01
4.000000000000000000e+01 1.627649605863857118e+01
4.100000000000000000e+01 1.661720803547963143e+01
4.200000000000000000e+01 1.695283654395940687e+01
4.300000000000000000e+01 1.728924023061938797e+01
4.400000000000000000e+01 1.762267380729175770e+01
4.500000000000000000e+01 1.795758645778594342e+01
4.600000000000000000e+01 1.829644328582420698e+01
4.700000000000000000e+01 1.863279711472573652e+01
4.800000000000000000e+01 1.896768434703031048e+01
4.900000000000000000e+01 1.930235074665388240e+01
5.000000000000000000e+01 1.963953634685412908e+01
5.100000000000000000e+01 1.997432817412225958e+01
5.200000000000000000e+01 2.030763899692619034e+01
5.300000000000000000e+01 2.064053880337239377e+01
5.400000000000000000e+01 2.097673680947936603e+01
5.500000000000000000e+01 2.131615787141251062e+01
5.600000000000000000e+01 2.165793858881790257e+01
5.700000000000000000e+01 2.199747959603834957e+01
5.800000000000000000e+01 2.233866535996827452e+01
5.900000000000000000e+01 2.267608245213263274e+01
6.000000000000000000e+01 2.301538745028108579e+01
6.100000000000000000e+01 2.335648365147965322e+01
6.200000000000000000e+01 2.369392586339743545e+01
6.300000000000000000e+01 2.403380647436529216e+01
6.400000000000000000e+01 2.437590024081881168e+01
6.500000000000000000e+01 2.471113592450612373e+01
6.600000000000000000e+01 2.505408930522064281e+01
6.700000000000000000e+01 2.539352940758316279e+01
6.800000000000000000e+01 2.572934814408263549e+01
6.900000000000000000e+01 2.606929465864086026e+01
7.000000000000000000e+01 2.641126730036113202e+01
7.100000000000000000e+01 2.675052559545467901e+01
7.200000000000000000e+01 2.708954177250284445e+01
7.300000000000000000e+01 2.743030482386853919e+01
7.400000000000000000e+01 2.777038945380439827e+01
7.500000000000000000e+01 2.811184655195947357e+01
7.600000000000000000e+01 2.845166294824052855e+01
7.700000000000000000e+01 2.879393941450648597e+01
7.800000000000000000e+01 2.913081649724868782e+01
7.900000000000000000e+01 2.946854794467584426e+01
8.000000000000000000e+01 2.980615182017757547e+01
8.100000000000000000e+01 3.014496804556142351e+01
8.200000000000000000e+01 3.047907744886217074e+01
8.300000000000000000e+01 3.081597609929497494e+01
8.400000000000000000e+01 3.114954264341625745e+01
8.500000000000000000e+01 3.148380217531093095e+01
8.600000000000000000e+01 3.181675994403246577e+01
8.700000000000000000e+01 3.215273372320819334e+01
8.800000000000000000e+01 3.248616253371580598e+01
8.900000000000000000e+01 3.282213689076088059e+01
9.000000000000000000e+01 3.315720832136886997e+01
9.100000000000000000e+01 3.349432753848896027e+01
9.200000000000000000e+01 3.383107798134031441e+01
9.300000000000000000e+01 3.416714282691241067e+01
9.400000000000000000e+01 3.450698353646365746e+01
9.500000000000000000e+01 3.484200654238707529e+01
9.600000000000000000e+01 3.517551700797921654e+01
9.700000000000000000e+01 3.551398270633340104e+01
9.800000000000000000e+01 3.584899173105196013e+01
9.900000000000000000e+01 3.618879168790400058e+01
1.000000000000000000e+02 3.652480792120280739e+01
1.010000000000000000e+02 3.686092926284590732e+01
1.020000000000000000e+02 3.719790928669797836e+01
1.030000000000000000e+02 3.753220636456040182e+01
1.040000000000000000e+02 3.786903722759597457e+01
1.050000000000000000e+02 3.820694177720636020e+01
1.060000000000000000e+02 3.854233567254198078e+01
1.070000000000000000e+02 3.887505662390348249e+01
1.080000000000000000e+02 3.921206316028051475e+01
1.090000000000000000e+02 3.954288929181159773e+01
1.100000000000000000e+02 3.988035770548416536e+01
1.110000000000000000e+02 4.021750186435900076e+01
1.120000000000000000e+02 4.055297157574590727e+01
1.130000000000000000e+02 4.088791462069907112e+01
1.140000000000000000e+02 4.122240993958221367e+01
1.150000000000000000e+02 4.155508271640752582e+01
1.160000000000000000e+02 4.188967839696361040e+01
1.170000000000000000e+02 4.222592531729265630e+01
1.180000000000000000e+02 4.256249875968791940e+01
1.190000000000000000e+02 4.289647675168982488e+01
1.200000000000000000e+02 4.323048212482297004e+01
1.210000000000000000e+02 4.356524580049062934e+01
1.220000000000000000e+02 4.389963820527662364e+01
1.230000000000000000e+02 4.423964023564164449e+01
1.240000000000000000e+02 4.457832141669465642e+01
1.250000000000000000e+02 4.492003718921680644e+01
1.260000000000000000e+02 4.525971885929965310e+01
1.270000000000000000e+02 4.559857383489340776e+01
1.280000000000000000e+02 4.593768348615305541e+01
1.290000000000000000e+02 4.628050542595084238e+01
1.300000000000000000e+02 4.662348345477587230e+01
1.310000000000000000e+02 4.696682910461257876e+01
1.320000000000000000e+02 4.730673546597567025e+01
1.330000000000000000e+02 4.764805386552230715e+01
1.340000000000000000e+02 4.798270954251307074e+01
1.350000000000000000e+02 4.832078784937493765e+01
1.360000000000000000e+02 4.866142991872737866e+01
1.370000000000000000e+02 4.900188982467263799e+01
1.380000000000000000e+02 4.934074645516538027e+01
1.390000000000000000e+02 4.967639875452147180e+01
1.400000000000000000e+02 5.001563201316860585e+01
1.410000000000000000e+02 5.035297988445640982e+01
1.420000000000000000e+02 5.069248377264449346e+01
1.430000000000000000e+02 5.102673045126969242e+01
1.440000000000000000e+02 5.136272456304467227e+01
1.450000000000000000e+02 5.169835121056547678e+01
1.460000000000000000e+02 5.203717355862539762e+01
1.470000000000000000e+02 5.237102066540806078e+01
1.480000000000000000e+02 5.270398650620794001e+01
1.490000000000000000e+02 5.304588115729475106e+01
1.500000000000000000e+02 5.338163711444008896e+01
1.510000000000000000e+02 5.371878914221802148e+01
1.520000000000000000e+02 5.405378739588402226e+01
1.530000000000000000e+02 5.439362908282785725e+01
1.540000000000000000e+02 5.473153031516751099e+01
1.550000000000000000e+02 5.506972058900904443e+01
1.560000000000000000e+02 5.540777033868826607e+01
1.570000000000000000e+02 5.574670501366902187e+01
1.580000000000000000e+02 5.608468945595412691e+01
1.590000000000000000e+02 5.642067141114213058e+01
1.600000000000000000e+02 5.675914063098067430e+01
1.610000000000000000e+02 5.709701425888670201e+01
1.620000000000000000e+02 5.743238240262463279e+01
1.630000000000000000e+02 5.777037744549900822e+01
1.640000000000000000e+02 5.811115841771908919e+01
1.650000000000000000e+02 5.844768743742809392e+01
1.660000000000000000e+02 5.878551611507713659e+01
1.670000000000000000e+02 5.912629397677030596e+01
1.680000000000000000e+02 5.946381341283148458e+01
1.690000000000000000e+02 5.979871545495083041e+01
1.700000000000000000e+02 6.013575890615857134e+01
1.710000000000000000e+02 6.047230285527665927e+01
1.720000000000000000e+02 6.080868880555545530e+01
1.730000000000000000e+02 6.114526355602311725e+01
1.740000000000000000e+02 6.148239672070042161e+01
1.750000000000000000e+02 6.182282721530202707e+01
1.760000000000000000e+02 6.216037007603003417e+01
1.770000000000000000e+02 6.250015787275300028e+01
1.780000000000000000e+02 6.283508358114638526e+01
1.790000000000000000e+02 6.317504173485371410e+01
1.800000000000000000e+02 6.351519359306241341e+01
1.810000000000000000e+02 6.385083054287512283e+01
1.820000000000000000e+02 6.418809993813260917e+01
1.830000000000000000e+02 6.452560240952439585e+01
1.840000000000000000e+02 6.486596816372038177e+01
1.850000000000000000e+02 6.520892018424851244e+01
1.860000000000000000e+02 6.554336355182921636e+01
1.870000000000000000e+02 6.588254009081788354e+01
1.880000000000000000e+02 6.621699095592958884e+01
1.890000000000000000e+02 6.655048125508550072e+01
1.900000000000000000e+02 6.688795035884994888e+01
1.910000000000000000e+02 6.722675218872753078e+01
1.920000000000000000e+02 6.756522794100985152e+01
1.930000000000000000e+02 6.790049203629401120e+01
1.940000000000000000e+02 6.823630439830593275e+01
1.950000000000000000e+02 6.857145226781450731e+01
1.960000000000000000e+02 6.890952388146030216e+01
1.970000000000000000e+02 6.924715800466422877e+01
1.980000000000000000e+02 6.958205889107608755e+01
1.990000000000000000e+02 6.991915988727275533e+01
2.000000000000000000e+02 7.025643404765803268e+01
2.010000000000000000e+02 7.059256244772582534e+01
2.020000000000000000e+02 7.092630591455200317e+01
2.030000000000000000e+02 7.126052909155968962e+01
2.040000000000000000e+02 7.159237875786133998e+01
2.050000000000000000e+02 7.192541229132790193e+01
2.060000000000000000e+02 7.226003886870942949e+01
2.070000000000000000e+02 7.258971082559972388e+01
2.080000000000000000e+02 7.292289769649900677e+01
2.090000000000000000e+02 7.325143372419915977e+01
2.100000000000000000e+02 7.358472480237601587e+01
2.110000000000000000e+02 7.391600125524585962e+01
2.120000000000000000e+02 7.424192147114005991e+01
2.130000000000000000e+02 7.457192661581986215e+01
2.140000000000000000e+02 7.490059227937943831e+01
2.150000000000000000e+02 7.523443514184060632e+01
2.160000000000000000e+02 7.556469279354213597e+01
2.170000000000000000e+02 7.589458584664428997e+01
2.180000000000000000e+02 7.622325815916462943e+01
2.190000000000000000e+02 7.655292992231431981e+01
2.200000000000000000e+02 7.688217660699007183e+01
2.210000000000000000e+02 7.720892857086732874e+01
2.220000000000000000e+02 7.753895442042885122e+01
2.230000000000000000e+02 7.787126307859495000e+01
2.240000000000000000e+02 7.820537014481442384e+01
2.250000000000000000e+02 7.853800509106126526e+01
2.260000000000000000e+02 7.886802370955278718e+01
2.270000000000000000e+02 7.920095113380355656e+01
2.280000000000000000e+02 7.953291067703612782e+01
2.290000000000000000e+02 7.986715937985430003e+01
2.300000000000000000e+02 8.019833410061664836e+01
2.310000000000000000e+02 8.052923608979655512e+01
2.320000000000000000e+02 8.086385980522460670e+01
2.330000000000000000e+02 8.119961052454385708e+01
2.340000000000000000e+02 8.153268736572762521e+01
2.350000000000000000e+02 8.186573733110519413e+01
2.360000000000000000e+02 8.219810560802667965e+01
2.370000000000000000e+02 8.252882519700295916e+01
2.380000000000000000e+02 8.286215811877640647e+01
2.390000000000000000e+02 8.319454257195870639e+01
2.400000000000000000e+02 8.352513138399743298e+01
2.410000000000000000e+02 8.385441614311829994e+01
2.420000000000000000e+02 8.418846528331044965e+01
2.430000000000000000e+02 8.451753671325805328e+01
2.440000000000000000e+02 8.484924484763476471e+01
2.450000000000000000e+02 8.517969833413368974e+01
2.460000000000000000e+02 8.551157834963483140e+01
2.470000000000000000e+02 8.584515893111650087e+01
2.480000000000000000e+02 8.617500532853382822e+01
2.490000000000000000e+02 8.650796628656974008e+01
2.500000000000000000e+02 8.684411950751264442e+01
2.510000000000000000e+02 8.717378805060515390e+01
2.520000000000000000e+02 8.750371354147641512e+01
2.530000000000000000e+02 8.783246071982229353e+01
2.540000000000000000e+02 8.816116963064347090e+01
2.550000000000000000e+02 8.849028014508239437e+01
2.560000000000000000e+02 8.881869857927252099e+01
2.570000000000000000e+02 8.914505626034456043e+01
2.580000000000000000e+02 8.947772094340989213e+01
2.590000000000000000e+02 8.980900099982072504e+01
2.600000000000000000e+02 9.014217646446127219e+01
2.610000000000000000e+02 9.046887846807766209e+01
2.620000000000000000e+02 9.079906341812632320e+01
2.630000000000000000e+02 9.112987624917342089e+01
2.640000000000000000e+02 9.145832208594633528e+01
2.650000000000000000e+02 9.178404541834909480e+01
2.660000000000000000e+02 9.211182027646601966e+01
2.670000000000000000e+02 9.244345159480788254e+01
2.680000000000000000e+02 9.277512779582592373e+01
2.690000000000000000e+02 9.310946420478281027e+01
2.700000000000000000e+02 9.344234192463666488e+01
2.710000000000000000e+02 9.377643108741729350e+01
2.720000000000000000e+02 9.411101499773970147e+01
2.730000000000000000e+02 9.445095403020873448e+01
2.740000000000000000e+02 9.478874476174746633e+01
2.750000000000000000e+02 9.512634399837462240e+01
2.760000000000000000e+02 9.545961953856495086e+01
2.770000000000000000e+02 9.579085840946146391e+01
2.780000000000000000e+02 9.612277047051834700e+01
2.790000000000000000e+02 9.645433504756648802e+01
2.800000000000000000e+02 9.678611884207477090e+01
2.810000000000000000e+02 9.711678834509655189e+01
2.820000000000000000e+02 9.745013370021568733e+01
2.830000000000000000e+02 9.778385489419014220e+01
2.840000000000000000e+02 9.811619332868536958e+01
2.850000000000000000e+02 9.845013264431344169e+01
2.860000000000000000e+02 9.878531837033575869e+01
2.870000000000000000e+02 9.911654955733111194e+01
2.880000000000000000e+02 9.944373506026516907e+01
2.890000000000000000e+02 9.977573388318182879e+01
2.900000000000000000e+02 1.001117479419804823e+02
2.910000000000000000e+02 1.004411855701437588e+02
2.920000000000000000e+02 1.007741136685971242e+02
2.930000000000000000e+02 1.011084707430360226e+02
2.940000000000000000e+02 1.014402770840494128e+02
2.950000000000000000e+02 1.017728440921018063e+02
2.960000000000000000e+02 1.021062925118562106e+02
2.970000000000000000e+02 1.024372965960905049e+02
2.980000000000000000e+02 1.027700189697156929e+02
2.990000000000000000e+02 1.031016276291145033e+02
3.000000000000000000e+02 1.034374567102610740e+02
3.010000000000000000e+02 1.037727578446966135e+02
3.020000000000000000e+02 1.041044877826939228e+02
3.030000000000000000e+02 1.044401896640044924e+02
3.040000000000000000e+02 1.047742068397537878e+02
3.050000000000000000e+02 1.051087865174517901e+02
3.060000000000000000e+02 1.054443428631635697e+02
3.070000000000000000e+02 1.057800560329284281e+02
3.080000000000000000e+02 1.061189746137542897e+02
3.090000000000000000e+02 1.064576037058605351e+02
3.100000000000000000e+02 1.067927327614183497e+02
3.110000000000000000e+02 1.071246772141550281e+02
3.120000000000000000e+02 1.074541070377920704e+02
3.130000000000000000e+02 1.077858554390226544e+02
3.140000000000000000e+02 1.081204074765003469e+02
3.150000000000000000e+02 1.084553836668653162e+02
3.160000000000000000e+02 1.087911065176801202e+02
3.170000000000000000e+02 1.091320344890538507e+02
3.180000000000000000e+02 1.094687149446298235e+02
3.190000000000000000e+02 1.098001572898687499e+02
3.200000000000000000e+02 1.101378354359869576e+02
3.210000000000000000e+02 1.104729392221779563e+02
3.220000000000000000e+02 1.108080550990157462e+02
3.230000000000000000e+02 1.111451614738230091e+02
3.240000000000000000e+02 1.114813545773077976e+02
3.250000000000000000e+02 1.118198366135045063e+02
3.260000000000000000e+02 1.121564896695592211e+02
3.270000000000000000e+02 1.124935244226604141e+02
3.280000000000000000e+02 1.128297170720665576e+02
3.290000000000000000e+02 1.131693359883967673e+02
3.300000000000000000e+02 1.135065942031854576e+02
3.310000000000000000e+02 1.138412595901940563e+02
3.320000000000000000e+02 1.141796693960780686e+02
3.330000000000000000e+02 1.145185296680169387e+02
3.340000000000000000e+02 1.148605056707770018e+02
3.350000000000000000e+02 1.151983062463271636e+02
3.360000000000000000e+02 1.155353710889290255e+02
3.370000000000000000e+02 1.158756203057463523e+02
3.380000000000000000e+02 1.162127487087431064e+02
3.390000000000000000e+02 1.165519234473225509e+02
3.400000000000000000e+02 1.168880178205122746e+02
3.410000000000000000e+02 1.172299865358034481e+02
3.420000000000000000e+02 1.175695084114476998e+02
3.430000000000000000e+02 1.179119985046756369e+02
3.440000000000000000e+02 1.182533009128206771e+02
3.450000000000000000e+02 1.185911762327979062e+02
3.460000000000000000e+02 1.189280551125883107e+02
3.470000000000000000e+02 1.192668995441077868e+02
3.480000000000000000e+02 1.196041920719614495e+02
3.490000000000000000e+02 1.199421017404843752e+02
3.500000000000000000e+02 1.202797208239056630e+02
3.510000000000000000e+02 1.206142024966462003e+02
3.520000000000000000e+02 1.209545625678630785e+02
3.530000000000000000e+02 1.212915748128504418e+02
3.540000000000000000e+02 1.216268674241156447e+02
3.550000000000000000e+02 1.219652464514282997e+02
3.560000000000000000e+02 1.223000390302956930e+02
3.570000000000000000e+02 1.226387059876876719e+02
3.580000000000000000e+02 1.229752031778193100e+02
3.590000000000000000e+02 1.233130779789337907e+02
3.600000000000000000e+02 1.236505618334583687e+02
3.610000000000000000e+02 1.239854724649029976e+02
3.620000000000000000e+02 1.243242388309838731e+02
3.630000000000000000e+02 1.246596289101578492e+02
3.640000000000000000e+02 1.249933759499130588e+02
3.650000000000000000e+02 1.253281700081495273e+02
3.660000000000000000e+02 1.256643714646481413e+02
3.670000000000000000e+02 1.260009838825008472e+02
3.680000000000000000e+02 1.263386956188954429e+02
3.690000000000000000e+02 1.266775272175970457e+02
3.700000000000000000e+02 1.270121789005063562e+02
3.710000000000000000e+02 1.273497769501994270e+02
3.720000000000000000e+02 1.276873052031228326e+02
3.730000000000000000e+02 1.280229480663508639e+02
3.740000000000000000e+02 1.283584634016830535e+02
3.750000000000000000e+02 1.286976047452252203e+02
3.760000000000000000e+02 1.290384465296226040e+02
3.770000000000000000e+02 1.293776313448388748e+02
3.780000000000000000e+02 1.297158683609044374e+02
3.790000000000000000e+02 1.300542521915843963e+02
3.800000000000000000e+02 1.303937093035091266e+02
3.810000000000000000e+02 1.307319583355972270e+02
3.820000000000000000e+02 1.310709622656322040e+02
3.830000000000000000e+02 1.314078072374187798e+02
3.840000000000000000e+02 1.317456317154625935e+02
3.850000000000000000e+02 1.320848259087875078e+02
3.860000000000000000e+02 1.324246251337040974e+02
3.870000000000000000e+02 1.327607634523942295e+02
3.880000000000000000e+02 1.330958634505718976e+02
3.890000000000000000e+02 1.334346834761366551e+02
3.900000000000000000e+02 1.337729344963260871e+02
3.910000000000000000e+02 1.341113340716408402e+02
3.920000000000000000e+02 1.344477270130442150e+02
3.930000000000000000e+02 1.347869526811789740e+02
3.940000000000000000e+02 1.351258950943240791e+02
3.950000000000000000e+02 1.354662087909301817e+02
3.960000000000000000e+02 1.358043534591956529e+02
3.970000000000000000e+02 1.361408217996158498e+02
3.980000000000000000e+02 1.364732773389512488e+02
