# time (ps)	msd (pm2)
0.000000000000000000e+00 9.667507031923300471e-04
1.000000000000000000e+00 1.439983799549457100e+00
2.000000000000000000e+00 2.127601406144836282e+00
3.000000000000000000e+00 2.692060324436080343e+00
4.000000000000000000e+00 3.194107028780912572e+00
5.000000000000000000e+00 3.665225292778139021e+00
6.000000000000000000e+00 4.110814369920756661e+00
7.000000000000000000e+00 4.550052945683618510e+00
8.000000000000000000e+00 4.974714686495440574e+00
9.000000000000000000e+00 5.385471563737904255e+00
1.000000000000000000e+01 5.788943778262011008e+00
1.100000000000000000e+01 6.179883227640407206e+00
1.200000000000000000e+01 6.567125175555268868e+00
1.300000000000000000e+01 6.951797773708946693e+00
1.400000000000000000e+01 7.333003072987345661e+00
1.500000000000000000e+01 7.710959326320823592e+00
1.600000000000000000e+01 8.082327297982219605e+00
1.700000000000000000e+01 8.445896222303403533e+00
1.800000000000000000e+01 8.803811994092589188e+00
1.900000000000000000e+01 9.164958258983535444e+00
2.000000000000000000e+01 9.521148826488509798e+00
2.100000000000000000e+01 9.875748829209930690e+00
2.200000000000000000e+01 1.022795029101887110e+01
2.300000000000000000e+01 1.057948483001951701e+01
2.400000000000000000e+01 1.093694330371189061e+01
2.500000000000000000e+01 1.129129280356466047e+01
2.600000000000000000e+01 1.164587227433441363e+01
2.700000000000000000e+01 1.199649795131511887e+01
2.800000000000000000e+01 1.234465611165752463e+01
2.900000000000000000e+01 1.269284330341480782e+01
3.000000000000000000e+01 1.303447888042257041e+01
3.100000000000000000e+01 1.337994968513276639e+01
3.200000000000000000e+01 1.372725082138127028e+01
3.300000000000000000e+01 1.407553055903446015e+01
3.400000000000000000e+01 1.441519586877716996e+01
3.500000000000000000e+01 1.476522456982879739e+01
3.600000000000000000e+01 1.510650658325670115e+01
3.700000000000000000e+01 1.545115120126592245e+01
3.800000000000000000e+01 1.579510075613388942e+01
3.900000000000000000e+01 1.612933326070391260e+01
4.000000000000000000e+01 1.647023869697818199e+01
4.100000000000000000e+01 1.680851261700502519e+01
4.200000000000000000e+01 1.715743766562730244e+01
4.300000000000000000e+01 1.749997801252253637e+01
4.400000000000000000e+01 1.784375885307621346e+01
4.500000000000000000e+01 1.818711787995998108e+01
4.600000000000000000e+01 1.853091993197127252e+01
4.700000000000000000e+01 1.887620414129792934e+01
4.800000000000000000e+01 1.921702242287755524e+01
4.900000000000000000e+01 1.955561094747482187e+01
5.000000000000000000e+01 1.989248182816534793e+01
5.100000000000000000e+01 2.022767520485864878e+01
5.200000000000000000e+01 2.056347767078020894e+01
5.300000000000000000e+01 2.090006801232712874e+01
5.400000000000000000e+01 2.124046552476468719e+01
5.500000000000000000e+01 2.158015706499181618e+01
5.600000000000000000e+01 2.191665226762232166e+01
5.700000000000000000e+01 2.225089558881072094e+01
5.800000000000000000e+01 2.257853555766743980e+01
5.900000000000000000e+01 2.290920686163528686e+01
6.000000000000000000e+01 2.324489653154472180e+01
6.100000000000000000e+01 2.358557300622973329e+01
6.200000000000000000e+01 2.391697743191614478e+01
6.300000000000000000e+01 2.424483209742622236e+01
6.400000000000000000e+01 2.457947910217061604e+01
6.500000000000000000e+01 2.491740480710328853e+01
6.600000000000000000e+01 2.524974941768491732e+01
6.700000000000000000e+01 2.558561458579195858e+01
6.800000000000000000e+01 2.591543871212582673e+01
6.900000000000000000e+01 2.625264133848391879e+01
7.000000000000000000e+01 2.658553705475330986e+01
7.100000000000000000e+01 2.691407858403254849e+01
7.200000000000000000e+01 2.724239691993047785e+01
7.300000000000000000e+01 2.757773446993342503e+01
7.400000000000000000e+01 2.790478045471494539e+01
7.500000000000000000e+01 2.823835704956104564e+01
7.600000000000000000e+01 2.856202316170125144e+01
7.700000000000000000e+01 2.888513868016185526e+01
7.800000000000000000e+01 2.920501628218177714e+01
7.900000000000000000e+01 2.952878069137430117e+01
8.000000000000000000e+01 2.985014654765480557e+01
8.100000000000000000e+01 3.017081522175739039e+01
8.200000000000000000e+01 3.048763300403634702e+01
8.300000000000000000e+01 3.081076773408432601e+01
8.400000000000000000e+01 3.113191439809924788e+01
8.500000000000000000e+01 3.145690059304257602e+01
8.600000000000000000e+01 3.177510993214196944e+01
8.700000000000000000e+01 3.209726429931653513e+01
8.800000000000000000e+01 3.242283517770727030e+01
8.900000000000000000e+01 3.274310468037608501e+01
9.000000000000000000e+01 3.306390450666000902e+01
9.100000000000000000e+01 3.338145611411542291e+01
9.200000000000000000e+01 3.369999414454735387e+01
9.300000000000000000e+01 3.401770022419669459e+01
9.400000000000000000e+01 3.433978047562078473e+01
9.500000000000000000e+01 3.465994271407570437e+01
9.600000000000000000e+01 3.498353011081702135e+01
9.700000000000000000e+01 3.531188649701658733e+01
9.800000000000000000e+01 3.562949760970433744e+01
9.900000000000000000e+01 3.595396490915277354e+01
1.000000000000000000e+02 3.628170683505380367e+01
1.010000000000000000e+02 3.660922579126468435e+01
1.020000000000000000e+02 3.693128077813641852e+01
1.030000000000000000e+02 3.725382491233386162e+01
1.040000000000000000e+02 3.757668459874979305e+01
1.050000000000000000e+02 3.789763213886628535e+01
1.060000000000000000e+02 3.821666931575591519e+01
1.070000000000000000e+02 3.853946200415128942e+01
1.080000000000000000e+02 3.886010076921079559e+01
1.090000000000000000e+02 3.916958032642111220e+01
1.100000000000000000e+02 3.948419798519570634e+01
1.110000000000000000e+02 3.979675396602447535e+01
1.120000000000000000e+02 4.011175203644724263e+01
1.130000000000000000e+02 4.042459016457078746e+01
1.140000000000000000e+02 4.073565101337209882e+01
1.150000000000000000e+02 4.104514529811265078e+01
1.160000000000000000e+02 4.135398649054079101e+01
1.170000000000000000e+02 4.166340263516873677e+01
1.180000000000000000e+02 4.197662576190903394e+01
1.190000000000000000e+02 4.228542742058219517e+01
1.200000000000000000e+02 4.259884843123776221e+01
1.210000000000000000e+02 4.290671521951529144e+01
1.220000000000000000e+02 4.322811217065808620e+01
1.230000000000000000e+02 4.354684036493509325e+01
1.240000000000000000e+02 4.386776422930193320e+01
1.250000000000000000e+02 4.418648417326399169e+01
1.260000000000000000e+02 4.449959590940243714e+01
1.270000000000000000e+02 4.482117561467497779e+01
1.280000000000000000e+02 4.513705131482686284e+01
1.290000000000000000e+02 4.545382621356959874e+01
1.300000000000000000e+02 4.576574653344586352e+01
1.310000000000000000e+02 4.608558317684732941e+01
1.320000000000000000e+02 4.639726081242237399e+01
1.330000000000000000e+02 4.670997425331862729e+01
1.340000000000000000e+02 4.702374465472343701e+01
1.350000000000000000e+02 4.733816069048487662e+01
1.360000000000000000e+02 4.765865852630550137e+01
1.370000000000000000e+02 4.796559796983714818e+01
1.380000000000000000e+02 4.828294954279003548e+01
1.390000000000000000e+02 4.859856833226692885e+01
1.400000000000000000e+02 4.891840070291630127e+01
1.410000000000000000e+02 4.923236742546335876e+01
1.420000000000000000e+02 4.954587573030983805e+01
1.430000000000000000e+02 4.985551882483015618e+01
1.440000000000000000e+02 5.017004289591480415e+01
1.450000000000000000e+02 5.049067800859447175e+01
1.460000000000000000e+02 5.080358483168618733e+01
1.470000000000000000e+02 5.111340144326285895e+01
1.480000000000000000e+02 5.142196127363197888e+01
1.490000000000000000e+02 5.173843593056541579e+01
1.500000000000000000e+02 5.205080016105706164e+01
1.510000000000000000e+02 5.237372496686559487e+01
1.520000000000000000e+02 5.268510356793639460e+01
1.530000000000000000e+02 5.299920430243535208e+01
1.540000000000000000e+02 5.331101815436822733e+01
1.550000000000000000e+02 5.362628962841101554e+01
1.560000000000000000e+02 5.394061215713355750e+01
1.570000000000000000e+02 5.424710227024601750e+01
1.580000000000000000e+02 5.455421382123498830e+01
1.590000000000000000e+02 5.486820013227220727e+01
1.600000000000000000e+02 5.517698050773410756e+01
1.610000000000000000e+02 5.548317648159295601e+01
1.620000000000000000e+02 5.579388117931956259e+01
1.630000000000000000e+02 5.610501362315789464e+01
1.640000000000000000e+02 5.641690412916907604e+01
1.650000000000000000e+02 5.672624181140442090e+01
1.660000000000000000e+02 5.704000335557564938e+01
1.670000000000000000e+02 5.734421378414650405e+01
1.680000000000000000e+02 5.765503221286183333e+01
1.690000000000000000e+02 5.796102024467680991e+01
1.700000000000000000e+02 5.826550732644965080e+01
1.710000000000000000e+02 5.856552074609574277e+01
1.720000000000000000e+02 5.887123680141629478e+01
1.730000000000000000e+02 5.917651168195335742e+01
1.740000000000000000e+02 5.947879179803203442e+01
1.750000000000000000e+02 5.978670416072351657e+01
1.760000000000000000e+02 6.009882697723271860e+01
1.770000000000000000e+02 6.040478946848050157e+01
1.780000000000000000e+02 6.071383990089945826e+01
1.790000000000000000e+02 6.102172692309773794e+01
1.800000000000000000e+02 6.132749977207146941e+01
1.810000000000000000e+02 6.163602986557451402e+01
1.820000000000000000e+02 6.195137034484040583e+01
1.830000000000000000e+02 6.226046411655532609e+01
1.840000000000000000e+02 6.257417551980868353e+01
1.850000000000000000e+02 6.287695567777051764e+01
1.860000000000000000e+02 6.318410996407938285e+01
1.870000000000000000e+02 6.349286859766323232e+01
1.880000000000000000e+02 6.379654981139142222e+01
1.890000000000000000e+02 6.410492335158838273e+01
1.900000000000000000e+02 6.441193169326172097e+01
1.910000000000000000e+02 6.472155627701813785e+01
1.920000000000000000e+02 6.502708059895668669e+01
1.930000000000000000e+02 6.534137954954063332e+01
1.940000000000000000e+02 6.565132017674193321e+01
1.950000000000000000e+02 6.595465062376388232e+01
1.960000000000000000e+02 6.626753913352607128e+01
1.970000000000000000e+02 6.657730731567433224e+01
1.980000000000000000e+02 6.689741062323460596e+01
1.990000000000000000e+02 6.721250511395570015e+01
2.000000000000000000e+02 6.752203293805578710e+01
2.010000000000000000e+02 6.782926375293013166e+01
2.020000000000000000e+02 6.813303895309890379e+01
2.030000000000000000e+02 6.844092590259711528e+01
2.040000000000000000e+02 6.874890795928091336e+01
2.050000000000000000e+02 6.905382555817395485e+01
2.060000000000000000e+02 6.936228174888852038e+01
2.070000000000000000e+02 6.967086692968339889e+01
2.080000000000000000e+02 6.998149931044379457e+01
2.090000000000000000e+02 7.029312935964046005e+01
2.100000000000000000e+02 7.059993051442822320e+01
2.110000000000000000e+02 7.090453588226300496e+01
2.120000000000000000e+02 7.121791715944229395e+01
2.130000000000000000e+02 7.153517435994321261e+01
2.140000000000000000e+02 7.184398410818239711e+01
2.150000000000000000e+02 7.215989582710072625e+01
2.160000000000000000e+02 7.247311351715217143e+01
2.170000000000000000e+02 7.278282523026581430e+01
2.180000000000000000e+02 7.310001203204602405e+01
2.190000000000000000e+02 7.341482296741303060e+01
2.200000000000000000e+02 7.372759016244488350e+01
2.210000000000000000e+02 7.404351458548721610e+01
2.220000000000000000e+02 7.436312337866688438e+01
2.230000000000000000e+02 7.467940371841841340e+01
2.240000000000000000e+02 7.499520981611152592e+01
2.250000000000000000e+02 7.532167094956133724e+01
2.260000000000000000e+02 7.563979223804324192e+01
2.270000000000000000e+02 7.596052712221305114e+01
2.280000000000000000e+02 7.627907849630084058e+01
2.290000000000000000e+02 7.659251871137094270e+01
2.300000000000000000e+02 7.691137357271441033e+01
2.310000000000000000e+02 7.723007160858512066e+01
2.320000000000000000e+02 7.755008457375839726e+01
2.330000000000000000e+02 7.786476413521073425e+01
2.340000000000000000e+02 7.817518322251544305e+01
2.350000000000000000e+02 7.849082121462025441e+01
2.360000000000000000e+02 7.880768853349925962e+01
2.370000000000000000e+02 7.912620833455417824e+01
2.380000000000000000e+02 7.944215179459249043e+01
2.390000000000000000e+02 7.975998073258944032e+01
2.400000000000000000e+02 8.007331772977181572e+01
2.410000000000000000e+02 8.038630630839375613e+01
2.420000000000000000e+02 8.070623127519797890e+01
2.430000000000000000e+02 8.102234463285802235e+01
2.440000000000000000e+02 8.133516671807311127e+01
2.450000000000000000e+02 8.164975378232976766e+01
2.460000000000000000e+02 8.196956876711072937e+01
2.470000000000000000e+02 8.228875854700683590e+01
2.480000000000000000e+02 8.260565389806593828e+01
2.490000000000000000e+02 8.292314739836072590e+01
2.500000000000000000e+02 8.323490489204935727e+01
2.510000000000000000e+02 8.354817648890170290e+01
2.520000000000000000e+02 8.386601015818158089e+01
2.530000000000000000e+02 8.417524201310926912e+01
2.540000000000000000e+02 8.449021263406049798e+01
2.550000000000000000e+02 8.480435964274376204e+01
2.560000000000000000e+02 8.512137525058184906e+01
2.570000000000000000e+02 8.543494946868005968e+01
2.580000000000000000e+02 8.575128457144933236e+01
2.590000000000000000e+02 8.606489190397199707e+01
2.600000000000000000e+02 8.638004951749975646e+01
2.610000000000000000e+02 8.669747017115471976e+01
2.620000000000000000e+02 8.702174873193332871e+01
2.630000000000000000e+02 8.734552208125091965e+01
2.640000000000000000e+02 8.767038454688844240e+01
2.650000000000000000e+02 8.799297021100248628e+01
2.660000000000000000e+02 8.830735702175658730e+01
2.670000000000000000e+02 8.863038293274553325e+01
2.680000000000000000e+02 8.895374492522752519e+01
2.690000000000000000e+02 8.928216614333422285e+01
2.700000000000000000e+02 8.960820837894894453e+01
2.710000000000000000e+02 8.992916472258504257e+01
2.720000000000000000e+02 9.024542710297340875e+01
2.730000000000000000e+02 9.056380345961365208e+01
2.740000000000000000e+02 9.088663092538072874e+01
2.750000000000000000e+02 9.120735865920293861e+01
2.760000000000000000e+02 9.152462818803275013e+01
2.770000000000000000e+02 9.184139057237614168e+01
2.780000000000000000e+02 9.216056021963240141e+01
2.790000000000000000e+02 9.247012914101256342e+01
2.800000000000000000e+02 9.278460573314704618e+01
2.810000000000000000e+02 9.310050864372925616e+01
2.820000000000000000e+02 9.341406873247886722e+01
2.830000000000000000e+02 9.373134829647106869e+01
2.840000000000000000e+02 9.405003427311548592e+01
2.850000000000000000e+02 9.436025934487658162e+01
2.860000000000000000e+02 9.467372117545154708e+01
2.870000000000000000e+02 9.498107391736635918e+01
2.880000000000000000e+02 9.529527701389281447e+01
2.890000000000000000e+02 9.560322233181518925e+01
2.900000000000000000e+02 9.591475966620748750e+01
2.910000000000000000e+02 9.623139588193207317e+01
2.920000000000000000e+02 9.654407809820584419e+01
2.930000000000000000e+02 9.685842964694873558e+01
2.940000000000000000e+02 9.717623363852528939e+01
2.950000000000000000e+02 9.749371397400132366e+01
2.960000000000000000e+02 9.781201414595675203e+01
2.970000000000000000e+02 9.812618453400688168e+01
2.980000000000000000e+02 9.844682604807502457e+01
2.990000000000000000e+02 9.876640836825390579e+01
3.000000000000000000e+02 9.908500867650479904e+01
3.010000000000000000e+02 9.939979398527097487e+01
3.020000000000000000e+02 9.971347476724086789e+01
3.030000000000000000e+02 1.000296133555358580e+02
3.040000000000000000e+02 1.003417817946771038e+02
3.050000000000000000e+02 1.006526034273162082e+02
3.060000000000000000e+02 1.009661820844009412e+02
3.070000000000000000e+02 1.012844799113830732e+02
3.080000000000000000e+02 1.016044832676673053e+02
3.090000000000000000e+02 1.019230418226245973e+02
3.100000000000000000e+02 1.022417603712732870e+02
3.110000000000000000e+02 1.025624448326792049e+02
3.120000000000000000e+02 1.028831615780994753e+02
3.130000000000000000e+02 1.032032534567556326e+02
3.140000000000000000e+02 1.035242329895909421e+02
3.150000000000000000e+02 1.038439538850553134e+02
3.160000000000000000e+02 1.041621954026193464e+02
3.170000000000000000e+02 1.044741434760316565e+02
3.180000000000000000e+02 1.047962896460487627e+02
3.190000000000000000e+02 1.051225711702331864e+02
3.200000000000000000e+02 1.054409546305966785e+02
3.210000000000000000e+02 1.057594458507348918e+02
3.220000000000000000e+02 1.060837691650404082e+02
3.230000000000000000e+02 1.064026581799515156e+02
3.240000000000000000e+02 1.067257414607938983e+02
3.250000000000000000e+02 1.070453493223026697e+02
3.260000000000000000e+02 1.073664082138743510e+02
3.270000000000000000e+02 1.076833504845375273e+02
3.280000000000000000e+02 1.079965070185788960e+02
3.290000000000000000e+02 1.083115279035701093e+02
3.300000000000000000e+02 1.086289007636647881e+02
3.310000000000000000e+02 1.089522538551878910e+02
3.320000000000000000e+02 1.092677502247240113e+02
3.330000000000000000e+02 1.095836833900834648e+02
3.340000000000000000e+02 1.098957615119802824e+02
3.350000000000000000e+02 1.102157157494615376e+02
3.360000000000000000e+02 1.105324047076764913e+02
3.370000000000000000e+02 1.108435145927893188e+02
3.380000000000000000e+02 1.111600610150880613e+02
3.390000000000000000e+02 1.114833886805163985e+02
3.400000000000000000e+02 1.118048776149743730e+02
3.410000000000000000e+02 1.121219049405634820e+02
3.420000000000000000e+02 1.124434093851716057e+02
3.430000000000000000e+02 1.127615072055933041e+02
3.440000000000000000e+02 1.130786719734993824e+02
3.450000000000000000e+02 1.133968352205603907e+02
3.460000000000000000e+02 1.137145514932963835e+02
3.470000000000000000e+02 1.140246256429111327e+02
3.480000000000000000e+02 1.143399323000640067e+02
3.490000000000000000e+02 1.146629508126170549e+02
3.500000000000000000e+02 1.149847953831102387e+02
3.510000000000000000e+02 1.152956465767356775e+02
3.520000000000000000e+02 1.156105370084131039e+02
3.530000000000000000e+02 1.159245290336748297e+02
3.540000000000000000e+02 1.162386766452847127e+02
3.550000000000000000e+02 1.165517548720545591e+02
3.560000000000000000e+02 1.168691727991688651e+02
3.570000000000000000e+02 1.171895426963889548e+02
3.580000000000000000e+02 1.175011594273435378e+02
3.590000000000000000e+02 1.178177467059095420e+02
3.600000000000000000e+02 1.181283814441304543e+02
3.610000000000000000e+02 1.184461483067624528e+02
3.620000000000000000e+02 1.187643175486426799e+02
3.630000000000000000e+02 1.190787054142323313e+02
3.640000000000000000e+02 1.193869406092538270e+02
3.650000000000000000e+02 1.196977011118110852e+02
3.660000000000000000e+02 1.200085392260288302e+02
3.670000000000000000e+02 1.203193588289709339e+02
3.680000000000000000e+02 1.206313040479313230e+02
3.690000000000000000e+02 1.209521265966669432e+02
3.700000000000000000e+02 1.212667495999018712e+02
3.710000000000000000e+02 1.215809257619375927e+02
3.720000000000000000e+02 1.218982486604937066e+02
3.730000000000000000e+02 1.222020290760855943e+02
3.740000000000000000e+02 1.225196491414664450e+02
3.750000000000000000e+02 1.228230474124812730e+02
3.760000000000000000e+02 1.231405161473963830e+02
3.770000000000000000e+02 1.234601933320710998e+02
3.780000000000000000e+02 1.237756021304719383e+02
3.790000000000000000e+02 1.240885064083678202e+02
3.800000000000000000e+02 1.244041300688782314e+02
3.810000000000000000e+02 1.247233869756145168e+02
3.820000000000000000e+02 1.250416806203724178e+02
3.830000000000000000e+02 1.253575292720093159e+02
3.840000000000000000e+02 1.256722599158569835e+02
3.850000000000000000e+02 1.259853726931046793e+02
3.860000000000000000e+02 1.262991625063915535e+02
3.870000000000000000e+02 1.266132608729795948e+02
3.880000000000000000e+02 1.269334237473445341e+02
3.890000000000000000e+02 1.272560566948405238e+02
3.900000000000000000e+02 1.275788407621318186e+02
3.910000000000000000e+02 1.278949212735048349e+02
3.920000000000000000e+02 1.282101804270576508e+02
3.930000000000000000e+02 1.285335025515735765e+02
3.940000000000000000e+02 1.288502677353792194e+02
3.950000000000000000e+02 1.291655105143385640e+02
3.960000000000000000e+02 1.294803739379501621e+02
3.970000000000000000e+02 1.298010650136115487e+02
3.980000000000000000e+02 1.301196480432946032e+02
