# time (ps)	msd (pm2)
0.000000000000000000e+00 1.464008694895824192e-03
1.000000000000000000e+00 1.434673693827294594e+00
2.000000000000000000e+00 2.114072655400102807e+00
3.000000000000000000e+00 2.670236375456167988e+00
4.000000000000000000e+00 3.177948213657114884e+00
5.000000000000000000e+00 3.645380899319151879e+00
6.000000000000000000e+00 4.089879724995348909e+00
7.000000000000000000e+00 4.512612071576579176e+00
8.000000000000000000e+00 4.913675855071224952e+00
9.000000000000000000e+00 5.311347175197056458e+00
1.000000000000000000e+01 5.702809071450586131e+00
1.100000000000000000e+01 6.095208185144557866e+00
1.200000000000000000e+01 6.469635612190494101e+00
1.300000000000000000e+01 6.846719529283314287e+00
1.400000000000000000e+01 7.220618973836094412e+00
1.500000000000000000e+01 7.592316788145581086e+00
1.600000000000000000e+01 7.959873724000894768e+00
1.700000000000000000e+01 8.323538974091196252e+00
1.800000000000000000e+01 8.679631898513383348e+00
1.900000000000000000e+01 9.038813677628455778e+00
2.000000000000000000e+01 9.390186328619190448e+00
2.100000000000000000e+01 9.741646279505745909e+00
2.200000000000000000e+01 1.009355759917962558e+01
2.300000000000000000e+01 1.043942073612065258e+01
2.400000000000000000e+01 1.078491471255545164e+01
2.500000000000000000e+01 1.113429908618116393e+01
2.600000000000000000e+01 1.147945610823545159e+01
2.700000000000000000e+01 1.182215474184555859e+01
2.800000000000000000e+01 1.216615197315236863e+01
2.900000000000000000e+01 1.251866266067381517e+01
3.000000000000000000e+01 1.286102969114007166e+01
3.100000000000000000e+01 1.320437358631816593e+01
3.200000000000000000e+01 1.354231894885634091e+01
3.300000000000000000e+01 1.387993184013256709e+01
3.400000000000000000e+01 1.421726757045903256e+01
3.500000000000000000e+01 1.455071767809754135e+01
3.600000000000000000e+01 1.489484066943125029e+01
3.700000000000000000e+01 1.523474741363288487e+01
3.800000000000000000e+01 1.556894766862725632e+01
3.900000000000000000e+01 1.589955616407708305e+01
4.000000000000000000e+01 1.623278808520020888e+01
4.100000000000000000e+01 1.657288757548265323e+01
4.200000000000000000e+01 1.691195423362711026e+01
4.300000000000000000e+01 1.724829631091857607e+01
4.400000000000000000e+01 1.758509362821370203e+01
4.500000000000000000e+01 1.791469729537491773e+01
4.600000000000000000e+01 1.825422113293075910e+01
4.700000000000000000e+01 1.859489497888840148e+01
4.800000000000000000e+01 1.893413041106930805e+01
4.900000000000000000e+01 1.927137041138255213e+01
5.000000000000000000e+01 1.960927659456496741e+01
5.100000000000000000e+01 1.995173404788655702e+01
5.200000000000000000e+01 2.028489054022476168e+01
5.300000000000000000e+01 2.061922608185413353e+01
5.400000000000000000e+01 2.095631858331812580e+01
5.500000000000000000e+01 2.129108375203665204e+01
5.600000000000000000e+01 2.163289978002827496e+01
5.700000000000000000e+01 2.197240851913007376e+01
5.800000000000000000e+01 2.230811809384660194e+01
5.900000000000000000e+01 2.264348682462935258e+01
6.000000000000000000e+01 2.298432954925994665e+01
6.100000000000000000e+01 2.333029813073496683e+01
6.200000000000000000e+01 2.367087932521224047e+01
6.300000000000000000e+01 2.400840044977616827e+01
6.400000000000000000e+01 2.434574993772880802e+01
6.500000000000000000e+01 2.468115733932437195e+01
6.600000000000000000e+01 2.502349583416462764e+01
6.700000000000000000e+01 2.536507872105059391e+01
6.800000000000000000e+01 2.570320910350054078e+01
6.900000000000000000e+01 2.604367061503826619e+01
7.000000000000000000e+01 2.638469187569251773e+01
7.100000000000000000e+01 2.672630039080305409e+01
7.200000000000000000e+01 2.706111854962846053e+01
7.300000000000000000e+01 2.740154187169347466e+01
7.400000000000000000e+01 2.773891292597916447e+01
7.500000000000000000e+01 2.808069866995858632e+01
7.600000000000000000e+01 2.842386203059094640e+01
7.700000000000000000e+01 2.876635972789277673e+01
7.800000000000000000e+01 2.910115067019418689e+01
7.900000000000000000e+01 2.942964226765725755e+01
8.000000000000000000e+01 2.976380359127667674e+01
8.100000000000000000e+01 3.009476789258384599e+01
8.200000000000000000e+01 3.041995619438623777e+01
8.300000000000000000e+01 3.075039716023236736e+01
8.400000000000000000e+01 3.108029902143249501e+01
8.500000000000000000e+01 3.140910509679898865e+01
8.600000000000000000e+01 3.173935630243128259e+01
8.700000000000000000e+01 3.206651616063615506e+01
8.800000000000000000e+01 3.239243872296054860e+01
8.900000000000000000e+01 3.272163498467983089e+01
9.000000000000000000e+01 3.304897673937130520e+01
9.100000000000000000e+01 3.337749044518249519e+01
9.200000000000000000e+01 3.370916526392218060e+01
9.300000000000000000e+01 3.403533189066520492e+01
9.400000000000000000e+01 3.436815321697151404e+01
9.500000000000000000e+01 3.469931101137123619e+01
9.600000000000000000e+01 3.503045990650083752e+01
9.700000000000000000e+01 3.536498047349892460e+01
9.800000000000000000e+01 3.569809631711066089e+01
9.900000000000000000e+01 3.603316301091513196e+01
1.000000000000000000e+02 3.635899862837120367e+01
1.010000000000000000e+02 3.669234980874939112e+01
1.020000000000000000e+02 3.702664513634630339e+01
1.030000000000000000e+02 3.736237030434139683e+01
1.040000000000000000e+02 3.768795115688932640e+01
1.050000000000000000e+02 3.802144060244790325e+01
1.060000000000000000e+02 3.835738209789071362e+01
1.070000000000000000e+02 3.868789669711958368e+01
1.080000000000000000e+02 3.901535405753729435e+01
1.090000000000000000e+02 3.934087696928149569e+01
1.100000000000000000e+02 3.967213027177819384e+01
1.110000000000000000e+02 4.000640816521863741e+01
1.120000000000000000e+02 4.033644228123728936e+01
1.130000000000000000e+02 4.067248158204301234e+01
1.140000000000000000e+02 4.100051404997562798e+01
1.150000000000000000e+02 4.132658991259540215e+01
1.160000000000000000e+02 4.165968345287251395e+01
1.170000000000000000e+02 4.199543048065930151e+01
1.180000000000000000e+02 4.232704285400399868e+01
1.190000000000000000e+02 4.265779486538071552e+01
1.200000000000000000e+02 4.298793413854102852e+01
1.210000000000000000e+02 4.331716476242658587e+01
1.220000000000000000e+02 4.364725041913197146e+01
1.230000000000000000e+02 4.398491146936255802e+01
1.240000000000000000e+02 4.432033469415030424e+01
1.250000000000000000e+02 4.466244765399142125e+01
1.260000000000000000e+02 4.499816308113557284e+01
1.270000000000000000e+02 4.533319837137873520e+01
1.280000000000000000e+02 4.566555214456113276e+01
1.290000000000000000e+02 4.600514203918087475e+01
1.300000000000000000e+02 4.634375703778137989e+01
1.310000000000000000e+02 4.668366218156455005e+01
1.320000000000000000e+02 4.702218883876204103e+01
1.330000000000000000e+02 4.735743634213527287e+01
1.340000000000000000e+02 4.768775670230385799e+01
1.350000000000000000e+02 4.801781824166211976e+01
1.360000000000000000e+02 4.835434375432970455e+01
1.370000000000000000e+02 4.868500562852022284e+01
1.380000000000000000e+02 4.900962875471982017e+01
1.390000000000000000e+02 4.933691771483491095e+01
1.400000000000000000e+02 4.967236206952466659e+01
1.410000000000000000e+02 5.000852274012582654e+01
1.420000000000000000e+02 5.033780068520553641e+01
1.430000000000000000e+02 5.066100173185323996e+01
1.440000000000000000e+02 5.099509038682595730e+01
1.450000000000000000e+02 5.132413266848635658e+01
1.460000000000000000e+02 5.165703287710707770e+01
1.470000000000000000e+02 5.198500536490558943e+01
1.480000000000000000e+02 5.231279171217531143e+01
1.490000000000000000e+02 5.265005461635620065e+01
1.500000000000000000e+02 5.297589268857141320e+01
1.510000000000000000e+02 5.330774496495784831e+01
1.520000000000000000e+02 5.363862810395835368e+01
1.530000000000000000e+02 5.397256534709237030e+01
1.540000000000000000e+02 5.430406114508817694e+01
1.550000000000000000e+02 5.463591079600603706e+01
1.560000000000000000e+02 5.496972590394495484e+01
1.570000000000000000e+02 5.529787539418587983e+01
1.580000000000000000e+02 5.563443954578660566e+01
1.590000000000000000e+02 5.596637849237389162e+01
1.600000000000000000e+02 5.630641420838698963e+01
1.610000000000000000e+02 5.663904217583259992e+01
1.620000000000000000e+02 5.697145706029491663e+01
1.630000000000000000e+02 5.730840369193449391e+01
1.640000000000000000e+02 5.764722151310169806e+01
1.650000000000000000e+02 5.798115626025216329e+01
1.660000000000000000e+02 5.831902321816040313e+01
1.670000000000000000e+02 5.865753084865215072e+01
1.680000000000000000e+02 5.899342937146033705e+01
1.690000000000000000e+02 5.932349520862947401e+01
1.700000000000000000e+02 5.966169833605433581e+01
1.710000000000000000e+02 5.998885032236194093e+01
1.720000000000000000e+02 6.032707416982834303e+01
1.730000000000000000e+02 6.065760593965444514e+01
1.740000000000000000e+02 6.099107550967907088e+01
1.750000000000000000e+02 6.132703957462553035e+01
1.760000000000000000e+02 6.165951653087991957e+01
1.770000000000000000e+02 6.199575367238099233e+01
1.780000000000000000e+02 6.232390829163981749e+01
1.790000000000000000e+02 6.266028421471759913e+01
1.800000000000000000e+02 6.299868882547949767e+01
1.810000000000000000e+02 6.333104543566052769e+01
1.820000000000000000e+02 6.366229915993388744e+01
1.830000000000000000e+02 6.399342679306345616e+01
1.840000000000000000e+02 6.432726413121710607e+01
1.850000000000000000e+02 6.465890242569149393e+01
1.860000000000000000e+02 6.498196690739909798e+01
1.870000000000000000e+02 6.531480417156542728e+01
1.880000000000000000e+02 6.564377371428520291e+01
1.890000000000000000e+02 6.597328835188072560e+01
1.900000000000000000e+02 6.630427662434037472e+01
1.910000000000000000e+02 6.663775046235872423e+01
1.920000000000000000e+02 6.696906716085209155e+01
1.930000000000000000e+02 6.729423859376197470e+01
1.940000000000000000e+02 6.762514984641677529e+01
1.950000000000000000e+02 6.794549875906797354e+01
1.960000000000000000e+02 6.827260171856065085e+01
1.970000000000000000e+02 6.860368884585119531e+01
1.980000000000000000e+02 6.893393003703656063e+01
1.990000000000000000e+02 6.926261342057983939e+01
2.000000000000000000e+02 6.959048205287461997e+01
2.010000000000000000e+02 6.991802879153982531e+01
2.020000000000000000e+02 7.023882191914022144e+01
2.030000000000000000e+02 7.056409908858769597e+01
2.040000000000000000e+02 7.088994399430045235e+01
2.050000000000000000e+02 7.121697272416133728e+01
2.060000000000000000e+02 7.154574694509750543e+01
2.070000000000000000e+02 7.186738180259546027e+01
2.080000000000000000e+02 7.219262330971935171e+01
2.090000000000000000e+02 7.251147720446185474e+01
2.100000000000000000e+02 7.283664897244855752e+01
2.110000000000000000e+02 7.315927675084125781e+01
2.120000000000000000e+02 7.347753004509023356e+01
2.130000000000000000e+02 7.380158898911248855e+01
2.140000000000000000e+02 7.412142904414376687e+01
2.150000000000000000e+02 7.445024453622338001e+01
2.160000000000000000e+02 7.477157527164334283e+01
2.170000000000000000e+02 7.509115166506354910e+01
2.180000000000000000e+02 7.541009817699598727e+01
2.190000000000000000e+02 7.573617298285500965e+01
2.200000000000000000e+02 7.606466529921870290e+01
2.210000000000000000e+02 7.639067119907336689e+01
2.220000000000000000e+02 7.672124528500725660e+01
2.230000000000000000e+02 7.705314686004601299e+01
2.240000000000000000e+02 7.738988335753667513e+01
2.250000000000000000e+02 7.772113998564401527e+01
2.260000000000000000e+02 7.805199207544006867e+01
2.270000000000000000e+02 7.838586036990126615e+01
2.280000000000000000e+02 7.871868410132071858e+01
2.290000000000000000e+02 7.905168576935402314e+01
2.300000000000000000e+02 7.937855233858709880e+01
2.310000000000000000e+02 7.970750488415525581e+01
2.320000000000000000e+02 8.004172802513032536e+01
2.330000000000000000e+02 8.037792578501749574e+01
2.340000000000000000e+02 8.071302548828498402e+01
2.350000000000000000e+02 8.104821437003383267e+01
2.360000000000000000e+02 8.138731410714170522e+01
2.370000000000000000e+02 8.171982264946812791e+01
2.380000000000000000e+02 8.205545726650591121e+01
2.390000000000000000e+02 8.239068458517057536e+01
2.400000000000000000e+02 8.272179874007034073e+01
2.410000000000000000e+02 8.305133427347607267e+01
2.420000000000000000e+02 8.339007251007105026e+01
2.430000000000000000e+02 8.371933472455762626e+01
2.440000000000000000e+02 8.405275300385939374e+01
2.450000000000000000e+02 8.438063341446255095e+01
2.460000000000000000e+02 8.471302663775327346e+01
2.470000000000000000e+02 8.504540624454199360e+01
2.480000000000000000e+02 8.536821081032351799e+01
2.490000000000000000e+02 8.569526147861495247e+01
2.500000000000000000e+02 8.602799102584654634e+01
2.510000000000000000e+02 8.635112293887374335e+01
2.520000000000000000e+02 8.667891513550937077e+01
2.530000000000000000e+02 8.700552412333669849e+01
2.540000000000000000e+02 8.732842433104848112e+01
2.550000000000000000e+02 8.765280478443780510e+01
2.560000000000000000e+02 8.797787307857109340e+01
2.570000000000000000e+02 8.830318782289084822e+01
2.580000000000000000e+02 8.863244590935759959e+01
2.590000000000000000e+02 8.895997669255665130e+01
2.600000000000000000e+02 8.928964993619439383e+01
2.610000000000000000e+02 8.961620950985046363e+01
2.620000000000000000e+02 8.993996175086219580e+01
2.630000000000000000e+02 9.026505127318772281e+01
2.640000000000000000e+02 9.059228925461810888e+01
2.650000000000000000e+02 9.091145322738663026e+01
2.660000000000000000e+02 9.123155655189421509e+01
2.670000000000000000e+02 9.155914732624665930e+01
2.680000000000000000e+02 9.188991114350820055e+01
2.690000000000000000e+02 9.222513099543928661e+01
2.700000000000000000e+02 9.255578357676276369e+01
2.710000000000000000e+02 9.288466030837653875e+01
2.720000000000000000e+02 9.321774691716994710e+01
2.730000000000000000e+02 9.355519775129837967e+01
2.740000000000000000e+02 9.388933760236196235e+01
2.750000000000000000e+02 9.422172378514611069e+01
2.760000000000000000e+02 9.454935454193909550e+01
2.770000000000000000e+02 9.487608365676271660e+01
2.780000000000000000e+02 9.520459931712956347e+01
2.790000000000000000e+02 9.553238811641929829e+01
2.800000000000000000e+02 9.586545747623466696e+01
2.810000000000000000e+02 9.618793265229729172e+01
2.820000000000000000e+02 9.651810352330201681e+01
2.830000000000000000e+02 9.684556303269619093e+01
2.840000000000000000e+02 9.717288024033118177e+01
2.850000000000000000e+02 9.750279672284543153e+01
2.860000000000000000e+02 9.782834708129321655e+01
2.870000000000000000e+02 9.815897776749719128e+01
2.880000000000000000e+02 9.848428710642858164e+01
2.890000000000000000e+02 9.881138812826173989e+01
2.900000000000000000e+02 9.914482807991366542e+01
2.910000000000000000e+02 9.946836900064846532e+01
2.920000000000000000e+02 9.980297673231822841e+01
2.930000000000000000e+02 1.001386522826708898e+02
2.940000000000000000e+02 1.004708166130461393e+02
2.950000000000000000e+02 1.008061810965594560e+02
2.960000000000000000e+02 1.011421675191385390e+02
2.970000000000000000e+02 1.014732308453341716e+02
2.980000000000000000e+02 1.018044134336672357e+02
2.990000000000000000e+02 1.021395224849657808e+02
3.000000000000000000e+02 1.024777267113019974e+02
3.010000000000000000e+02 1.028186207755432662e+02
3.020000000000000000e+02 1.031581560791578340e+02
3.030000000000000000e+02 1.034971028767942727e+02
3.040000000000000000e+02 1.038320642569424450e+02
3.050000000000000000e+02 1.041702124826116034e+02
3.060000000000000000e+02 1.045042214046213616e+02
3.070000000000000000e+02 1.048365565843047307e+02
3.080000000000000000e+02 1.051742897101764385e+02
3.090000000000000000e+02 1.055196142767149041e+02
3.100000000000000000e+02 1.058554066236268909e+02
3.110000000000000000e+02 1.061922656685770505e+02
3.120000000000000000e+02 1.065259444043491328e+02
3.130000000000000000e+02 1.068621319807688366e+02
3.140000000000000000e+02 1.072045488574218268e+02
3.150000000000000000e+02 1.075444415186419462e+02
3.160000000000000000e+02 1.078829654843577401e+02
3.170000000000000000e+02 1.082294360704624268e+02
3.180000000000000000e+02 1.085732568603342258e+02
3.190000000000000000e+02 1.089147126930465532e+02
3.200000000000000000e+02 1.092625273855188937e+02
3.210000000000000000e+02 1.096045332345878478e+02
3.220000000000000000e+02 1.099484392886782302e+02
3.230000000000000000e+02 1.102965425405042339e+02
3.240000000000000000e+02 1.106430783114884093e+02
3.250000000000000000e+02 1.109937356175275056e+02
3.260000000000000000e+02 1.113418438977751777e+02
3.270000000000000000e+02 1.116888396097125877e+02
3.280000000000000000e+02 1.120319471440842847e+02
3.290000000000000000e+02 1.123807266735426680e+02
3.300000000000000000e+02 1.127262756972614142e+02
3.310000000000000000e+02 1.130650901182742132e+02
3.320000000000000000e+02 1.134092765724604988e+02
3.330000000000000000e+02 1.137551051700584281e+02
3.340000000000000000e+02 1.141061581469328416e+02
3.350000000000000000e+02 1.144520797310131286e+02
3.360000000000000000e+02 1.148027773572984245e+02
3.370000000000000000e+02 1.151534678161383169e+02
3.380000000000000000e+02 1.155006830594695941e+02
3.390000000000000000e+02 1.158506176664103151e+02
3.400000000000000000e+02 1.161947902426965271e+02
3.410000000000000000e+02 1.165449308601915561e+02
3.420000000000000000e+02 1.168900197435674073e+02
3.430000000000000000e+02 1.172431432687458965e+02
3.440000000000000000e+02 1.175929494387069667e+02
3.450000000000000000e+02 1.179355675284738112e+02
3.460000000000000000e+02 1.182767494796333096e+02
3.470000000000000000e+02 1.186263652380552287e+02
3.480000000000000000e+02 1.189768776916215813e+02
3.490000000000000000e+02 1.193234400382939810e+02
3.500000000000000000e+02 1.196690803022373473e+02
3.510000000000000000e+02 1.200147320578615222e+02
3.520000000000000000e+02 1.203678131026506577e+02
3.530000000000000000e+02 1.207171181050808997e+02
3.540000000000000000e+02 1.210643290288588361e+02
3.550000000000000000e+02 1.214151924722924036e+02
3.560000000000000000e+02 1.217618162376355997e+02
3.570000000000000000e+02 1.221096865881463884e+02
3.580000000000000000e+02 1.224582615049752548e+02
3.590000000000000000e+02 1.228051991828167360e+02
3.600000000000000000e+02 1.231535475505652215e+02
3.610000000000000000e+02 1.235026386568617767e+02
3.620000000000000000e+02 1.238520061548111499e+02
3.630000000000000000e+02 1.241904518905717651e+02
3.640000000000000000e+02 1.245353969786040693e+02
3.650000000000000000e+02 1.248749148704800831e+02
3.660000000000000000e+02 1.252172572040304317e+02
3.670000000000000000e+02 1.255633245824401740e+02
3.680000000000000000e+02 1.259113966990967697e+02
3.690000000000000000e+02 1.262615078033708187e+02
3.700000000000000000e+02 1.266032594919035574e+02
3.710000000000000000e+02 1.269541258862361133e+02
3.720000000000000000e+02 1.272996103808775814e+02
3.730000000000000000e+02 1.276465419803717083e+02
3.740000000000000000e+02 1.279890445876929306e+02
3.750000000000000000e+02 1.283318628928353462e+02
3.760000000000000000e+02 1.286796100691344122e+02
3.770000000000000000e+02 1.290291835658062496e+02
3.780000000000000000e+02 1.293753185805358044e+02
3.790000000000000000e+02 1.297251851999436099e+02
3.800000000000000000e+02 1.300733515519599450e+02
3.810000000000000000e+02 1.304242643849569561e+02
3.820000000000000000e+02 1.307736892829701389e+02
3.830000000000000000e+02 1.311230142793532139e+02
3.840000000000000000e+02 1.314677552821912911e+02
3.850000000000000000e+02 1.318228653707592741e+02
3.860000000000000000e+02 1.321758698601820470e+02
3.870000000000000000e+02 1.325303376379877136e+02
3.880000000000000000e+02 1.328791599674878228e+02
3.890000000000000000e+02 1.332336427271977186e+02
3.900000000000000000e+02 1.335893330321077030e+02
3.910000000000000000e+02 1.339457677265024529e+02
3.920000000000000000e+02 1.342965196088692608e+02
3.930000000000000000e+02 1.346519122354910962e+02
3.940000000000000000e+02 1.350078213235493649e+02
3.950000000000000000e+02 1.353601040697615474e+02
3.960000000000000000e+02 1.357196580051837600e+02
3.970000000000000000e+02 1.360713218388828238e+02
3.980000000000000000e+02 1.364173862247057514e+02
