# time (ps)	msd (A2)
0.000000000000000000e+00 2.851894639272140649e-03
1.000000000000000000e+00 1.806378344741346176e+00
2.000000000000000000e+00 2.963995647841718206e+00
3.000000000000000000e+00 4.008597239647136767e+00
4.000000000000000000e+00 4.992293672030053919e+00
5.000000000000000000e+00 5.939505720860530857e+00
6.000000000000000000e+00 6.863250737188316464e+00
7.000000000000000000e+00 7.754869744630908279e+00
8.000000000000000000e+00 8.629779222494796898e+00
9.000000000000000000e+00 9.499969442405545195e+00
1.000000000000000000e+01 1.035238415904273701e+01
1.100000000000000000e+01 1.119601332240656255e+01
1.200000000000000000e+01 1.204152116942472794e+01
1.300000000000000000e+01 1.288166031640212772e+01
1.400000000000000000e+01 1.372050311088037411e+01
1.500000000000000000e+01 1.454657954695519528e+01
1.600000000000000000e+01 1.537376586217291674e+01
1.700000000000000000e+01 1.619851849487339379e+01
1.800000000000000000e+01 1.702403880126693281e+01
1.900000000000000000e+01 1.783889347848807105e+01
2.000000000000000000e+01 1.865422482191800313e+01
2.100000000000000000e+01 1.946445229694221624e+01
2.200000000000000000e+01 2.027420312766911792e+01
2.300000000000000000e+01 2.108155023375467607e+01
2.400000000000000000e+01 2.187731771957380644e+01
2.500000000000000000e+01 2.267929956233338729e+01
2.600000000000000000e+01 2.348057781530474131e+01
2.700000000000000000e+01 2.428340086786456098e+01
2.800000000000000000e+01 2.507981289216136034e+01
2.900000000000000000e+01 2.588675653147573641e+01
3.000000000000000000e+01 2.669465331158064103e+01
3.100000000000000000e+01 2.749680635084643754e+01
3.200000000000000000e+01 2.830052991381457517e+01
3.300000000000000000e+01 2.910877588150238537e+01
3.400000000000000000e+01 2.992549356803611715e+01
3.500000000000000000e+01 3.073592615852734511e+01
3.600000000000000000e+01 3.153358684552453539e+01
3.700000000000000000e+01 3.234017272427789891e+01
3.800000000000000000e+01 3.313067021273980828e+01
3.900000000000000000e+01 3.392784903909053185e+01
4.000000000000000000e+01 3.472317093287949064e+01
4.100000000000000000e+01 3.551399447997548009e+01
4.200000000000000000e+01 3.630785622637885979e+01
4.300000000000000000e+01 3.710248371632832232e+01
4.400000000000000000e+01 3.788896325878391025e+01
4.500000000000000000e+01 3.868228995564108885e+01
4.600000000000000000e+01 3.948325573126748367e+01
4.700000000000000000e+01 4.028049554406991462e+01
4.800000000000000000e+01 4.108618468841485338e+01
4.900000000000000000e+01 4.189264546518149501e+01
5.000000000000000000e+01 4.270326631259947447e+01
5.100000000000000000e+01 4.350874884159399159e+01
5.200000000000000000e+01 4.431870206727658257e+01
5.300000000000000000e+01 4.513278266643218473e+01
5.400000000000000000e+01 4.594856485775181199e+01
5.500000000000000000e+01 4.676472111149299593e+01
5.600000000000000000e+01 4.758167626249913695e+01
5.700000000000000000e+01 4.839064167847197240e+01
5.800000000000000000e+01 4.920159238162570858e+01
5.900000000000000000e+01 5.001403080336214657e+01
6.000000000000000000e+01 5.082529053508360306e+01
6.100000000000000000e+01 5.163301787449633906e+01
6.200000000000000000e+01 5.243477375622094172e+01
6.300000000000000000e+01 5.323906450394461132e+01
6.400000000000000000e+01 5.403513673562181197e+01
6.500000000000000000e+01 5.482899487496325719e+01
6.600000000000000000e+01 5.562477318266627435e+01
6.700000000000000000e+01 5.641697893775245376e+01
6.800000000000000000e+01 5.721019421439407893e+01
6.900000000000000000e+01 5.800170481139056733e+01
7.000000000000000000e+01 5.878199396095643436e+01
7.100000000000000000e+01 5.957335145406216981e+01
7.200000000000000000e+01 6.036306613460904913e+01
7.300000000000000000e+01 6.115350044229899851e+01
7.400000000000000000e+01 6.194249771106282054e+01
7.500000000000000000e+01 6.273743279246709648e+01
7.600000000000000000e+01 6.353396996555621712e+01
7.700000000000000000e+01 6.433547191201955684e+01
7.800000000000000000e+01 6.513831782057762609e+01
7.900000000000000000e+01 6.593455646048199981e+01
8.000000000000000000e+01 6.673225975711194735e+01
8.100000000000000000e+01 6.751799483768242283e+01
8.200000000000000000e+01 6.830994807349543407e+01
8.300000000000000000e+01 6.910709171710662702e+01
8.400000000000000000e+01 6.989985382676177039e+01
8.500000000000000000e+01 7.068964445263013374e+01
8.600000000000000000e+01 7.147711120212545666e+01
8.700000000000000000e+01 7.227059952397442544e+01
8.800000000000000000e+01 7.305584305102486553e+01
8.900000000000000000e+01 7.384714926127081469e+01
9.000000000000000000e+01 7.464420692826126924e+01
9.100000000000000000e+01 7.544011028660662532e+01
9.200000000000000000e+01 7.623339934832171139e+01
9.300000000000000000e+01 7.702399452516641531e+01
9.400000000000000000e+01 7.781365568180312664e+01
9.500000000000000000e+01 7.860933950428477601e+01
9.600000000000000000e+01 7.939658534323314143e+01
9.700000000000000000e+01 8.020570863596448419e+01
9.800000000000000000e+01 8.100983963863386350e+01
9.900000000000000000e+01 8.181205550305004692e+01
1.000000000000000000e+02 8.260577574357115793e+01
1.010000000000000000e+02 8.340348966110880724e+01
1.020000000000000000e+02 8.421792421370800241e+01
1.030000000000000000e+02 8.503257655353161226e+01
1.040000000000000000e+02 8.584693556811707538e+01
1.050000000000000000e+02 8.666033049671199251e+01
1.060000000000000000e+02 8.747471771225058035e+01
1.070000000000000000e+02 8.829228192395565600e+01
1.080000000000000000e+02 8.910244314904120699e+01
1.090000000000000000e+02 8.991732659128979321e+01
1.100000000000000000e+02 9.072457174937507318e+01
1.110000000000000000e+02 9.153121184967505997e+01
1.120000000000000000e+02 9.233776483338813534e+01
1.130000000000000000e+02 9.314859062738925388e+01
1.140000000000000000e+02 9.395117257553751244e+01
1.150000000000000000e+02 9.475874275872503461e+01
1.160000000000000000e+02 9.556239055990634768e+01
1.170000000000000000e+02 9.636595660173001932e+01
1.180000000000000000e+02 9.717655120979286210e+01
1.190000000000000000e+02 9.798809460159634455e+01
1.200000000000000000e+02 9.879095496953827649e+01
1.210000000000000000e+02 9.958697610885445783e+01
1.220000000000000000e+02 1.003891659327944552e+02
1.230000000000000000e+02 1.011937938522945046e+02
1.240000000000000000e+02 1.020048197037649658e+02
1.250000000000000000e+02 1.028151026112395385e+02
1.260000000000000000e+02 1.036250964752241543e+02
1.270000000000000000e+02 1.044401398566704842e+02
1.280000000000000000e+02 1.052476725406007176e+02
1.290000000000000000e+02 1.060466375091292122e+02
1.300000000000000000e+02 1.068453285996707933e+02
1.310000000000000000e+02 1.076490443293260597e+02
1.320000000000000000e+02 1.084551879140501427e+02
1.330000000000000000e+02 1.092660860185099096e+02
1.340000000000000000e+02 1.100808527627312969e+02
1.350000000000000000e+02 1.108872935499164782e+02
1.360000000000000000e+02 1.116907013690275647e+02
1.370000000000000000e+02 1.124969688646434207e+02
1.380000000000000000e+02 1.133028288316840388e+02
1.390000000000000000e+02 1.141170220253454772e+02
1.400000000000000000e+02 1.149273608090190208e+02
1.410000000000000000e+02 1.157383583830190474e+02
1.420000000000000000e+02 1.165548270965945079e+02
1.430000000000000000e+02 1.173704529556547556e+02
1.440000000000000000e+02 1.181814341056324764e+02
1.450000000000000000e+02 1.189924874007321023e+02
1.460000000000000000e+02 1.197919227866346858e+02
1.470000000000000000e+02 1.205973680090804834e+02
1.480000000000000000e+02 1.214073511090467008e+02
1.490000000000000000e+02 1.222197644955437710e+02
1.500000000000000000e+02 1.230337294801295229e+02
1.510000000000000000e+02 1.238540980969115566e+02
1.520000000000000000e+02 1.246809265491178849e+02
1.530000000000000000e+02 1.254941496754648966e+02
1.540000000000000000e+02 1.263095594106811035e+02
1.550000000000000000e+02 1.271234171458379478e+02
1.560000000000000000e+02 1.279414568948201776e+02
1.570000000000000000e+02 1.287638799332975168e+02
1.580000000000000000e+02 1.295822627036318124e+02
1.590000000000000000e+02 1.303961428096332895e+02
1.600000000000000000e+02 1.312139012133764595e+02
1.610000000000000000e+02 1.320301513880488642e+02
1.620000000000000000e+02 1.328451962633266135e+02
1.630000000000000000e+02 1.336567757659699680e+02
1.640000000000000000e+02 1.344730509376114185e+02
1.650000000000000000e+02 1.352937737143737706e+02
1.660000000000000000e+02 1.361089932954493236e+02
1.670000000000000000e+02 1.369184672591486276e+02
1.680000000000000000e+02 1.377313881717372794e+02
1.690000000000000000e+02 1.385430726440373519e+02
1.700000000000000000e+02 1.393633120188061127e+02
1.710000000000000000e+02 1.401904633551215795e+02
1.720000000000000000e+02 1.410179482199431789e+02
1.730000000000000000e+02 1.418451628415403150e+02
1.740000000000000000e+02 1.426635852773100339e+02
1.750000000000000000e+02 1.434886959644911428e+02
1.760000000000000000e+02 1.443102492206846819e+02
1.770000000000000000e+02 1.451362939041927973e+02
1.780000000000000000e+02 1.459603536082401831e+02
1.790000000000000000e+02 1.467919484103755110e+02
1.800000000000000000e+02 1.476215931933087120e+02
1.810000000000000000e+02 1.484465811869538072e+02
1.820000000000000000e+02 1.492788607228018805e+02
1.830000000000000000e+02 1.501109250663552928e+02
1.840000000000000000e+02 1.509486386157450113e+02
1.850000000000000000e+02 1.517912514244146678e+02
1.860000000000000000e+02 1.526293866232098253e+02
1.870000000000000000e+02 1.534630629872767997e+02
1.880000000000000000e+02 1.542936797328841294e+02
1.890000000000000000e+02 1.551214909011969212e+02
1.900000000000000000e+02 1.559542722288615835e+02
1.910000000000000000e+02 1.567798448648244118e+02
1.920000000000000000e+02 1.576236029827161644e+02
1.930000000000000000e+02 1.584651842705410729e+02
1.940000000000000000e+02 1.593067544234002639e+02
1.950000000000000000e+02 1.601488662889552188e+02
1.960000000000000000e+02 1.609916958049444986e+02
1.970000000000000000e+02 1.618324266241313296e+02
1.980000000000000000e+02 1.626746464780753740e+02
1.990000000000000000e+02 1.635185013231952098e+02
2.000000000000000000e+02 1.643633632395159339e+02
2.010000000000000000e+02 1.652137044061348945e+02
2.020000000000000000e+02 1.660649032903652653e+02
2.030000000000000000e+02 1.669191546379218209e+02
2.040000000000000000e+02 1.677644557150829030e+02
2.050000000000000000e+02 1.686142828090724777e+02
2.060000000000000000e+02 1.694542735967999931e+02
2.070000000000000000e+02 1.702882322670357098e+02
2.080000000000000000e+02 1.711289559438613708e+02
2.090000000000000000e+02 1.719676849910460135e+02
2.100000000000000000e+02 1.728098642701010021e+02
2.110000000000000000e+02 1.736589945083611894e+02
2.120000000000000000e+02 1.745085052079497245e+02
2.130000000000000000e+02 1.753561624274025235e+02
2.140000000000000000e+02 1.762000848057275277e+02
2.150000000000000000e+02 1.770501472830447653e+02
2.160000000000000000e+02 1.778949575960960772e+02
2.170000000000000000e+02 1.787422780555294537e+02
2.180000000000000000e+02 1.795938482337533060e+02
2.190000000000000000e+02 1.804410915443188799e+02
2.200000000000000000e+02 1.812953455997811432e+02
2.210000000000000000e+02 1.821462706872171111e+02
2.220000000000000000e+02 1.830026973218398041e+02
2.230000000000000000e+02 1.838641411885726029e+02
2.240000000000000000e+02 1.847207921583788277e+02
2.250000000000000000e+02 1.855744939949822481e+02
2.260000000000000000e+02 1.864328613540922390e+02
2.270000000000000000e+02 1.872896722698870633e+02
2.280000000000000000e+02 1.881461760412241517e+02
2.290000000000000000e+02 1.890002387763565821e+02
2.300000000000000000e+02 1.898564553390174297e+02
2.310000000000000000e+02 1.907209938517263197e+02
2.320000000000000000e+02 1.915829874209578350e+02
2.330000000000000000e+02 1.924445671924354713e+02
2.340000000000000000e+02 1.933037919749473303e+02
2.350000000000000000e+02 1.941635925116601982e+02
2.360000000000000000e+02 1.950220069127003910e+02
2.370000000000000000e+02 1.958803165935989057e+02
2.380000000000000000e+02 1.967403145754203706e+02
2.390000000000000000e+02 1.975966476202573858e+02
2.400000000000000000e+02 1.984496252712067133e+02
2.410000000000000000e+02 1.992951682270885669e+02
2.420000000000000000e+02 2.001489905354438577e+02
2.430000000000000000e+02 2.009992925445182834e+02
2.440000000000000000e+02 2.018430871011603642e+02
2.450000000000000000e+02 2.026867570150604934e+02
2.460000000000000000e+02 2.035312506304802866e+02
2.470000000000000000e+02 2.043845464787677884e+02
2.480000000000000000e+02 2.052330657605789384e+02
2.490000000000000000e+02 2.060790841605729611e+02
2.500000000000000000e+02 2.069253449306447692e+02
2.510000000000000000e+02 2.077574417177852695e+02
2.520000000000000000e+02 2.085899217092224092e+02
2.530000000000000000e+02 2.094184597020681622e+02
2.540000000000000000e+02 2.102550727872685457e+02
2.550000000000000000e+02 2.110926480136326973e+02
2.560000000000000000e+02 2.119259643322229749e+02
2.570000000000000000e+02 2.127643610576123763e+02
2.580000000000000000e+02 2.136060590250433506e+02
2.590000000000000000e+02 2.144501628870746970e+02
2.600000000000000000e+02 2.152912201017403220e+02
2.610000000000000000e+02 2.161340145664354679e+02
2.620000000000000000e+02 2.169775726779989782e+02
2.630000000000000000e+02 2.178167068626143248e+02
2.640000000000000000e+02 2.186501753333745910e+02
2.650000000000000000e+02 2.194759833888457194e+02
2.660000000000000000e+02 2.203025372170600349e+02
2.670000000000000000e+02 2.211387467123489614e+02
2.680000000000000000e+02 2.219823160177310513e+02
2.690000000000000000e+02 2.228266568888167001e+02
2.700000000000000000e+02 2.236643313790125092e+02
2.710000000000000000e+02 2.245045079300010968e+02
2.720000000000000000e+02 2.253351111221155350e+02
2.730000000000000000e+02 2.261741733056527153e+02
2.740000000000000000e+02 2.270169743188582743e+02
2.750000000000000000e+02 2.278580040329551650e+02
2.760000000000000000e+02 2.287081401983107014e+02
2.770000000000000000e+02 2.295598359268215063e+02
2.780000000000000000e+02 2.304031021464309106e+02
2.790000000000000000e+02 2.312497687546056966e+02
2.800000000000000000e+02 2.320982392608715088e+02
2.810000000000000000e+02 2.329474784820530715e+02
2.820000000000000000e+02 2.337970774220105170e+02
2.830000000000000000e+02 2.346447524359585941e+02
2.840000000000000000e+02 2.354956719480248921e+02
2.850000000000000000e+02 2.363559580532235032e+02
2.860000000000000000e+02 2.372198003534099655e+02
2.870000000000000000e+02 2.380712779522301901e+02
2.880000000000000000e+02 2.389236172283871156e+02
2.890000000000000000e+02 2.397791103040807457e+02
2.900000000000000000e+02 2.406332716830098377e+02
2.910000000000000000e+02 2.414877345539858595e+02
2.920000000000000000e+02 2.423427953508704320e+02
2.930000000000000000e+02 2.431957060654885083e+02
2.940000000000000000e+02 2.440453002361079200e+02
2.950000000000000000e+02 2.448926119722069927e+02
2.960000000000000000e+02 2.457437273990742881e+02
2.970000000000000000e+02 2.465999295567555691e+02
2.980000000000000000e+02 2.474585638196890898e+02
2.990000000000000000e+02 2.483211075914661308e+02
3.000000000000000000e+02 2.491714050194890433e+02
3.010000000000000000e+02 2.500264777723167811e+02
3.020000000000000000e+02 2.508768199803169807e+02
3.030000000000000000e+02 2.517321658269656837e+02
3.040000000000000000e+02 2.525882492582809391e+02
3.050000000000000000e+02 2.534469916308819677e+02
3.060000000000000000e+02 2.543088893777854480e+02
3.070000000000000000e+02 2.551734032728639647e+02
3.080000000000000000e+02 2.560384262930005548e+02
3.090000000000000000e+02 2.569046650207478137e+02
3.100000000000000000e+02 2.577758351020352734e+02
3.110000000000000000e+02 2.586465479792715882e+02
3.120000000000000000e+02 2.595108116604794191e+02
3.130000000000000000e+02 2.603793328837787726e+02
3.140000000000000000e+02 2.612497557103529857e+02
3.150000000000000000e+02 2.621172043094859987e+02
3.160000000000000000e+02 2.629866361037010734e+02
3.170000000000000000e+02 2.638541920087390622e+02
3.180000000000000000e+02 2.647129308075002996e+02
3.190000000000000000e+02 2.655732632492741345e+02
3.200000000000000000e+02 2.664196931807683200e+02
3.210000000000000000e+02 2.672715772411833655e+02
3.220000000000000000e+02 2.681128438990504037e+02
3.230000000000000000e+02 2.689556908356201461e+02
3.240000000000000000e+02 2.697985139574079199e+02
3.250000000000000000e+02 2.706465347233028638e+02
3.260000000000000000e+02 2.715018812995927533e+02
3.270000000000000000e+02 2.723536966276885209e+02
3.280000000000000000e+02 2.732113778623287885e+02
3.290000000000000000e+02 2.740786367960683378e+02
3.300000000000000000e+02 2.749444828218458952e+02
3.310000000000000000e+02 2.757934021604667123e+02
3.320000000000000000e+02 2.766466920275296957e+02
3.330000000000000000e+02 2.774968810991237547e+02
3.340000000000000000e+02 2.783513593527123362e+02
3.350000000000000000e+02 2.792011040742465866e+02
3.360000000000000000e+02 2.800564254420771704e+02
3.370000000000000000e+02 2.809123467801842366e+02
3.380000000000000000e+02 2.817680550819282530e+02
3.390000000000000000e+02 2.826296533520485355e+02
3.400000000000000000e+02 2.834791325853322519e+02
3.410000000000000000e+02 2.843256520310735596e+02
3.420000000000000000e+02 2.851730760058519536e+02
3.430000000000000000e+02 2.860296725439638408e+02
3.440000000000000000e+02 2.868886752890032312e+02
3.450000000000000000e+02 2.877449051281429320e+02
3.460000000000000000e+02 2.886000498285509934e+02
3.470000000000000000e+02 2.894526758403626445e+02
3.480000000000000000e+02 2.903096884408021765e+02
3.490000000000000000e+02 2.911573265626473699e+02
3.500000000000000000e+02 2.920041823026179486e+02
3.510000000000000000e+02 2.928329247591274793e+02
3.520000000000000000e+02 2.936640654740349987e+02
3.530000000000000000e+02 2.945013542853830586e+02
3.540000000000000000e+02 2.953395580408950423e+02
3.550000000000000000e+02 2.961833385463043555e+02
3.560000000000000000e+02 2.970187381084870708e+02
3.570000000000000000e+02 2.978639933195094613e+02
3.580000000000000000e+02 2.987038524842549236e+02
3.590000000000000000e+02 2.995418735564776398e+02
3.600000000000000000e+02 3.003867513291008322e+02
3.610000000000000000e+02 3.012248151528437461e+02
3.620000000000000000e+02 3.020726203602622491e+02
3.630000000000000000e+02 3.029093909734623935e+02
3.640000000000000000e+02 3.037487145688021428e+02
3.650000000000000000e+02 3.045923554538161397e+02
3.660000000000000000e+02 3.054316632504510949e+02
3.670000000000000000e+02 3.062673177891333012e+02
3.680000000000000000e+02 3.070991734973403595e+02
3.690000000000000000e+02 3.079305932334679596e+02
3.700000000000000000e+02 3.087651166844760269e+02
3.710000000000000000e+02 3.096031618949211861e+02
3.720000000000000000e+02 3.104345901055397690e+02
3.730000000000000000e+02 3.112714085632878778e+02
3.740000000000000000e+02 3.121090689022282163e+02
3.750000000000000000e+02 3.129457081503502422e+02
3.760000000000000000e+02 3.137811431299426204e+02
3.770000000000000000e+02 3.146198707694164796e+02
3.780000000000000000e+02 3.154541396823254331e+02
3.790000000000000000e+02 3.162836425877433157e+02
3.800000000000000000e+02 3.171173022558086245e+02
3.810000000000000000e+02 3.179510100995439075e+02
3.820000000000000000e+02 3.187982523704786217e+02
3.830000000000000000e+02 3.196470380150090591e+02
3.840000000000000000e+02 3.205018912705428420e+02
3.850000000000000000e+02 3.213554109481468117e+02
3.860000000000000000e+02 3.222012803452982439e+02
3.870000000000000000e+02 3.230558588778930584e+02
3.880000000000000000e+02 3.239099626426415739e+02
3.890000000000000000e+02 3.247601033095453431e+02
3.900000000000000000e+02 3.256017633328085594e+02
3.910000000000000000e+02 3.264557184814325979e+02
3.920000000000000000e+02 3.273141185633214718e+02
3.930000000000000000e+02 3.281767336673829618e+02
3.940000000000000000e+02 3.290310380550953937e+02
3.950000000000000000e+02 3.298903977193904780e+02
3.960000000000000000e+02 3.307447988425997778e+02
3.970000000000000000e+02 3.316032392977395489e+02
3.980000000000000000e+02 3.324661310040647209e+02
