# time (ps)	msd (pm2)
0.000000000000000000e+00 2.994077009630144708e-03
1.000000000000000000e+00 1.805614058560125690e+00
2.000000000000000000e+00 2.963664347722527737e+00
3.000000000000000000e+00 4.010607642948195384e+00
4.000000000000000000e+00 5.000014577353953271e+00
5.000000000000000000e+00 5.954533216541650908e+00
6.000000000000000000e+00 6.883365563579009638e+00
7.000000000000000000e+00 7.777070511228521887e+00
8.000000000000000000e+00 8.653993668734630162e+00
9.000000000000000000e+00 9.529321034832111792e+00
1.000000000000000000e+01 1.038717722930897480e+01
1.100000000000000000e+01 1.123597748883848269e+01
1.200000000000000000e+01 1.208860385294564743e+01
1.300000000000000000e+01 1.293465100994516348e+01
1.400000000000000000e+01 1.378025457966537459e+01
1.500000000000000000e+01 1.461235982639976783e+01
1.600000000000000000e+01 1.544596629713773694e+01
1.700000000000000000e+01 1.627796699358330912e+01
1.800000000000000000e+01 1.711616715064275951e+01
1.900000000000000000e+01 1.794273357564016891e+01
2.000000000000000000e+01 1.876892800147634688e+01
2.100000000000000000e+01 1.958870970942214740e+01
2.200000000000000000e+01 2.040701126657774722e+01
2.300000000000000000e+01 2.122527216774798831e+01
2.400000000000000000e+01 2.202645471539715771e+01
2.500000000000000000e+01 2.283486072581221293e+01
2.600000000000000000e+01 2.364642588349939345e+01
2.700000000000000000e+01 2.446177361213904788e+01
2.800000000000000000e+01 2.526649624671719607e+01
2.900000000000000000e+01 2.608351242632751621e+01
3.000000000000000000e+01 2.690511777704919183e+01
3.100000000000000000e+01 2.772276794180967840e+01
3.200000000000000000e+01 2.853517978696231694e+01
3.300000000000000000e+01 2.935324999253844425e+01
3.400000000000000000e+01 3.018174610558293480e+01
3.500000000000000000e+01 3.100038242117730292e+01
3.600000000000000000e+01 3.180951576200846631e+01
3.700000000000000000e+01 3.262477143314875860e+01
3.800000000000000000e+01 3.342200503233812015e+01
3.900000000000000000e+01 3.422377066842388160e+01
4.000000000000000000e+01 3.502625040223858122e+01
4.100000000000000000e+01 3.582039484720493050e+01
4.200000000000000000e+01 3.661587068241247778e+01
4.300000000000000000e+01 3.741414050362653398e+01
4.400000000000000000e+01 3.820118097672649071e+01
4.500000000000000000e+01 3.899661250595364237e+01
4.600000000000000000e+01 3.980262263340723905e+01
4.700000000000000000e+01 4.060920919528017237e+01
4.800000000000000000e+01 4.142379534810345376e+01
4.900000000000000000e+01 4.224067447733237657e+01
5.000000000000000000e+01 4.306664852544368216e+01
5.100000000000000000e+01 4.388479192095012849e+01
5.200000000000000000e+01 4.470815400609219381e+01
5.300000000000000000e+01 4.552855048258876991e+01
5.400000000000000000e+01 4.635195499661822538e+01
5.500000000000000000e+01 4.717517477652022251e+01
5.600000000000000000e+01 4.799777550929691472e+01
5.700000000000000000e+01 4.881665322380352734e+01
5.800000000000000000e+01 4.964019116406801402e+01
5.900000000000000000e+01 5.047049545304602702e+01
6.000000000000000000e+01 5.129368362345911692e+01
6.100000000000000000e+01 5.211919261275883741e+01
6.200000000000000000e+01 5.293343675582009666e+01
6.300000000000000000e+01 5.374718558141664460e+01
6.400000000000000000e+01 5.454762956416116992e+01
6.500000000000000000e+01 5.534600877333283364e+01
6.600000000000000000e+01 5.615023471111931741e+01
6.700000000000000000e+01 5.695392063283198780e+01
6.800000000000000000e+01 5.774987487947803544e+01
6.900000000000000000e+01 5.854517242231219853e+01
7.000000000000000000e+01 5.932845868269775025e+01
7.100000000000000000e+01 6.011930982731791318e+01
7.200000000000000000e+01 6.090993287346001495e+01
7.300000000000000000e+01 6.170091536904993745e+01
7.400000000000000000e+01 6.248872458629861626e+01
7.500000000000000000e+01 6.328907895040261167e+01
7.600000000000000000e+01 6.409357202713572121e+01
7.700000000000000000e+01 6.490408027450855855e+01
7.800000000000000000e+01 6.571501026435966253e+01
7.900000000000000000e+01 6.651736914766388509e+01
8.000000000000000000e+01 6.732305449517797058e+01
8.100000000000000000e+01 6.811473579455520166e+01
8.200000000000000000e+01 6.891318797608782631e+01
8.300000000000000000e+01 6.971675402594593152e+01
8.400000000000000000e+01 7.051584907397861457e+01
8.500000000000000000e+01 7.131704293334917111e+01
8.600000000000000000e+01 7.211553290575223230e+01
8.700000000000000000e+01 7.292283074619203376e+01
8.800000000000000000e+01 7.371840053660092451e+01
8.900000000000000000e+01 7.451905718801299372e+01
9.000000000000000000e+01 7.532779982704987276e+01
9.100000000000000000e+01 7.613761408271386699e+01
9.200000000000000000e+01 7.694978226455326364e+01
9.300000000000000000e+01 7.775764313663115956e+01
9.400000000000000000e+01 7.855841280393612180e+01
9.500000000000000000e+01 7.936812094184256239e+01
9.600000000000000000e+01 8.016142899265908284e+01
9.700000000000000000e+01 8.098074534557618165e+01
9.800000000000000000e+01 8.179584022652342412e+01
9.900000000000000000e+01 8.261112651546314112e+01
1.000000000000000000e+02 8.341726182198496531e+01
1.010000000000000000e+02 8.423066836549782010e+01
1.020000000000000000e+02 8.506325325236758772e+01
1.030000000000000000e+02 8.589943750147035928e+01
1.040000000000000000e+02 8.673096899245749114e+01
1.050000000000000000e+02 8.756155519003567633e+01
1.060000000000000000e+02 8.839239499812188683e+01
1.070000000000000000e+02 8.922889462714699960e+01
1.080000000000000000e+02 9.005549434329502390e+01
1.090000000000000000e+02 9.088730011332799563e+01
1.100000000000000000e+02 9.171505094672498615e+01
1.110000000000000000e+02 9.253772156599850973e+01
1.120000000000000000e+02 9.336335004332502763e+01
1.130000000000000000e+02 9.419566397501590416e+01
1.140000000000000000e+02 9.501751755660718857e+01
1.150000000000000000e+02 9.584485389246179921e+01
1.160000000000000000e+02 9.666677706665474545e+01
1.170000000000000000e+02 9.748860201138917603e+01
1.180000000000000000e+02 9.832224556918700387e+01
1.190000000000000000e+02 9.915504801968376114e+01
1.200000000000000000e+02 9.998424553370921330e+01
1.210000000000000000e+02 1.008010017814308554e+02
1.220000000000000000e+02 1.016280174468972888e+02
1.230000000000000000e+02 1.024576355123453482e+02
1.240000000000000000e+02 1.032925322991752068e+02
1.250000000000000000e+02 1.041271884920013093e+02
1.260000000000000000e+02 1.049699837139621792e+02
1.270000000000000000e+02 1.058140353269153309e+02
1.280000000000000000e+02 1.066528905163602445e+02
1.290000000000000000e+02 1.074830748985970956e+02
1.300000000000000000e+02 1.083112379887951846e+02
1.310000000000000000e+02 1.091444580147207262e+02
1.320000000000000000e+02 1.099852491269616337e+02
1.330000000000000000e+02 1.108353783943929898e+02
1.340000000000000000e+02 1.116849446931814640e+02
1.350000000000000000e+02 1.125240215571043905e+02
1.360000000000000000e+02 1.133630772236859059e+02
1.370000000000000000e+02 1.142027266191315533e+02
1.380000000000000000e+02 1.150448190750640549e+02
1.390000000000000000e+02 1.158955686995356302e+02
1.400000000000000000e+02 1.167403649579654257e+02
1.410000000000000000e+02 1.175864331528603230e+02
1.420000000000000000e+02 1.184353374812223905e+02
1.430000000000000000e+02 1.192833272447561228e+02
1.440000000000000000e+02 1.201241457733597713e+02
1.450000000000000000e+02 1.209701555799782966e+02
1.460000000000000000e+02 1.218041515771210328e+02
1.470000000000000000e+02 1.226437973956810339e+02
1.480000000000000000e+02 1.234898178571429668e+02
1.490000000000000000e+02 1.243362252176913643e+02
1.500000000000000000e+02 1.251862706030472339e+02
1.510000000000000000e+02 1.260463597406533722e+02
1.520000000000000000e+02 1.269184094973324619e+02
1.530000000000000000e+02 1.277745437343709369e+02
1.540000000000000000e+02 1.286311097374812675e+02
1.550000000000000000e+02 1.294809252335485610e+02
1.560000000000000000e+02 1.303375097076144300e+02
1.570000000000000000e+02 1.311987287496021111e+02
1.580000000000000000e+02 1.320545832763355349e+02
1.590000000000000000e+02 1.329039071324593237e+02
1.600000000000000000e+02 1.337602789211658205e+02
1.610000000000000000e+02 1.346159676166911936e+02
1.620000000000000000e+02 1.354723464197243175e+02
1.630000000000000000e+02 1.363191228584841781e+02
1.640000000000000000e+02 1.371731089187771317e+02
1.650000000000000000e+02 1.380336537824537686e+02
1.660000000000000000e+02 1.388885132886039173e+02
1.670000000000000000e+02 1.397348090299233547e+02
1.680000000000000000e+02 1.405880100699665718e+02
1.690000000000000000e+02 1.414382454856819606e+02
1.700000000000000000e+02 1.422973622440822794e+02
1.710000000000000000e+02 1.431637017308387101e+02
1.720000000000000000e+02 1.440255930471123236e+02
1.730000000000000000e+02 1.448883839436508651e+02
1.740000000000000000e+02 1.457421904049446084e+02
1.750000000000000000e+02 1.466005678041041449e+02
1.760000000000000000e+02 1.474580473393459954e+02
1.770000000000000000e+02 1.483199083578216175e+02
1.780000000000000000e+02 1.491757539316645875e+02
1.790000000000000000e+02 1.500410327020707086e+02
1.800000000000000000e+02 1.509056146345320144e+02
1.810000000000000000e+02 1.517660603507063115e+02
1.820000000000000000e+02 1.526382750997906896e+02
1.830000000000000000e+02 1.535083184155232630e+02
1.840000000000000000e+02 1.543794610782945256e+02
1.850000000000000000e+02 1.552626453447759047e+02
1.860000000000000000e+02 1.561369701855408891e+02
1.870000000000000000e+02 1.570086306572380579e+02
1.880000000000000000e+02 1.578732707969535909e+02
1.890000000000000000e+02 1.587339036579522542e+02
1.900000000000000000e+02 1.596025558130070294e+02
1.910000000000000000e+02 1.604633159870923009e+02
1.920000000000000000e+02 1.613420939066940321e+02
1.930000000000000000e+02 1.622209752754685894e+02
1.940000000000000000e+02 1.631031422646369151e+02
1.950000000000000000e+02 1.639863828210771999e+02
1.960000000000000000e+02 1.648691676422093906e+02
1.970000000000000000e+02 1.657509566797493505e+02
1.980000000000000000e+02 1.666355638931723888e+02
1.990000000000000000e+02 1.675181705256441944e+02
2.000000000000000000e+02 1.684001589358757656e+02
2.010000000000000000e+02 1.692870283192520162e+02
2.020000000000000000e+02 1.701773506650845889e+02
2.030000000000000000e+02 1.710711083759387634e+02
2.040000000000000000e+02 1.719527919474027726e+02
2.050000000000000000e+02 1.728341259172538003e+02
2.060000000000000000e+02 1.737038892438262394e+02
2.070000000000000000e+02 1.745686907859122527e+02
2.080000000000000000e+02 1.754436071354618321e+02
2.090000000000000000e+02 1.763213321605600754e+02
2.100000000000000000e+02 1.771995885377382933e+02
2.110000000000000000e+02 1.780844984487934823e+02
2.120000000000000000e+02 1.789692658315682934e+02
2.130000000000000000e+02 1.798482350687234259e+02
2.140000000000000000e+02 1.807251084879335394e+02
2.150000000000000000e+02 1.816047325061794595e+02
2.160000000000000000e+02 1.824810108435707434e+02
2.170000000000000000e+02 1.833607048059386102e+02
2.180000000000000000e+02 1.842472920259480986e+02
2.190000000000000000e+02 1.851226462661450967e+02
2.200000000000000000e+02 1.860089691589855931e+02
2.210000000000000000e+02 1.868848039389146436e+02
2.220000000000000000e+02 1.877726045378861102e+02
2.230000000000000000e+02 1.886645848934812761e+02
2.240000000000000000e+02 1.895501670870039845e+02
2.250000000000000000e+02 1.904310735045452248e+02
2.260000000000000000e+02 1.913219281818809065e+02
2.270000000000000000e+02 1.922099994187504137e+02
2.280000000000000000e+02 1.930966055758392770e+02
2.290000000000000000e+02 1.939831486678218369e+02
2.300000000000000000e+02 1.948703184500979546e+02
2.310000000000000000e+02 1.957688265162115044e+02
2.320000000000000000e+02 1.966632960750518748e+02
2.330000000000000000e+02 1.975608252240596130e+02
2.340000000000000000e+02 1.984521582658346972e+02
2.350000000000000000e+02 1.993455740900968465e+02
2.360000000000000000e+02 2.002336015740144433e+02
2.370000000000000000e+02 2.011294602111551626e+02
2.380000000000000000e+02 2.020223742631990262e+02
2.390000000000000000e+02 2.029123167523503355e+02
2.400000000000000000e+02 2.037986807788597901e+02
2.410000000000000000e+02 2.046693593619623925e+02
2.420000000000000000e+02 2.055513764030962420e+02
2.430000000000000000e+02 2.064264038606065981e+02
2.440000000000000000e+02 2.072923659653574759e+02
2.450000000000000000e+02 2.081535892569313262e+02
2.460000000000000000e+02 2.090204546247305188e+02
2.470000000000000000e+02 2.098948637597744380e+02
2.480000000000000000e+02 2.107638183417849973e+02
2.490000000000000000e+02 2.116295364443367077e+02
2.500000000000000000e+02 2.124981912065867675e+02
2.510000000000000000e+02 2.133540153850472336e+02
2.520000000000000000e+02 2.142069797089016276e+02
2.530000000000000000e+02 2.150524433032475145e+02
2.540000000000000000e+02 2.159067295534750315e+02
2.550000000000000000e+02 2.167557702959944947e+02
2.560000000000000000e+02 2.176015830115019014e+02
2.570000000000000000e+02 2.184536918081983856e+02
2.580000000000000000e+02 2.193172498061811950e+02
2.590000000000000000e+02 2.201826385223556599e+02
2.600000000000000000e+02 2.210445179088011116e+02
2.610000000000000000e+02 2.219062080866631277e+02
2.620000000000000000e+02 2.227700767020887724e+02
2.630000000000000000e+02 2.236312937369712301e+02
2.640000000000000000e+02 2.244829427339992094e+02
2.650000000000000000e+02 2.253290747622677372e+02
2.660000000000000000e+02 2.261758850991506904e+02
2.670000000000000000e+02 2.270369545447389612e+02
2.680000000000000000e+02 2.279052044985278656e+02
2.690000000000000000e+02 2.287710003127805294e+02
2.700000000000000000e+02 2.296343438012800107e+02
2.710000000000000000e+02 2.304975450579021015e+02
2.720000000000000000e+02 2.313484420443771228e+02
2.730000000000000000e+02 2.322082242049971228e+02
2.740000000000000000e+02 2.330703219278078109e+02
2.750000000000000000e+02 2.339304533652101838e+02
2.760000000000000000e+02 2.348048332883127216e+02
2.770000000000000000e+02 2.356815747195659299e+02
2.780000000000000000e+02 2.365423734596165559e+02
2.790000000000000000e+02 2.374079641503482776e+02
2.800000000000000000e+02 2.382740402670686706e+02
2.810000000000000000e+02 2.391436687788320228e+02
2.820000000000000000e+02 2.400168009111229424e+02
2.830000000000000000e+02 2.408855751205837521e+02
2.840000000000000000e+02 2.417536568830742567e+02
2.850000000000000000e+02 2.426341612129663758e+02
2.860000000000000000e+02 2.435151818256676108e+02
2.870000000000000000e+02 2.443803423740400547e+02
2.880000000000000000e+02 2.452455102929934867e+02
2.890000000000000000e+02 2.461121621757672813e+02
2.900000000000000000e+02 2.469780400677961154e+02
2.910000000000000000e+02 2.478466626494991942e+02
2.920000000000000000e+02 2.487164408863334302e+02
2.930000000000000000e+02 2.495849717895528102e+02
2.940000000000000000e+02 2.504491065761594655e+02
2.950000000000000000e+02 2.513115643087209321e+02
2.960000000000000000e+02 2.521749566650734096e+02
2.970000000000000000e+02 2.530466583747164009e+02
2.980000000000000000e+02 2.539247729502287996e+02
2.990000000000000000e+02 2.548057308978361561e+02
3.000000000000000000e+02 2.556728691021901625e+02
3.010000000000000000e+02 2.565462905873103523e+02
3.020000000000000000e+02 2.574108370280465010e+02
3.030000000000000000e+02 2.582772343758779243e+02
3.040000000000000000e+02 2.591492589114555471e+02
3.050000000000000000e+02 2.600151459375115337e+02
3.060000000000000000e+02 2.608832541920582457e+02
3.070000000000000000e+02 2.617613133703143262e+02
3.080000000000000000e+02 2.626434922544488586e+02
3.090000000000000000e+02 2.635251974135803152e+02
3.100000000000000000e+02 2.644183432807536178e+02
3.110000000000000000e+02 2.653049216810316580e+02
3.120000000000000000e+02 2.661861635297451585e+02
3.130000000000000000e+02 2.670723519669534198e+02
3.140000000000000000e+02 2.679629010684876107e+02
3.150000000000000000e+02 2.688478550488547967e+02
3.160000000000000000e+02 2.697289604347515706e+02
3.170000000000000000e+02 2.706093010906005247e+02
3.180000000000000000e+02 2.714799931775785353e+02
3.190000000000000000e+02 2.723515258533489032e+02
3.200000000000000000e+02 2.732101411756464131e+02
3.210000000000000000e+02 2.740773611182092395e+02
3.220000000000000000e+02 2.749271849967075809e+02
3.230000000000000000e+02 2.757873442133941921e+02
3.240000000000000000e+02 2.766436500821955633e+02
3.250000000000000000e+02 2.775057191985498548e+02
3.260000000000000000e+02 2.783831836899919949e+02
3.270000000000000000e+02 2.792498215412320519e+02
3.280000000000000000e+02 2.801251340960125162e+02
3.290000000000000000e+02 2.810113757623989841e+02
3.300000000000000000e+02 2.818975426001657070e+02
3.310000000000000000e+02 2.827623293009776830e+02
3.320000000000000000e+02 2.836324394549363319e+02
3.330000000000000000e+02 2.845030653648026941e+02
3.340000000000000000e+02 2.853730624442737849e+02
3.350000000000000000e+02 2.862452886394253824e+02
3.360000000000000000e+02 2.871166434983428530e+02
3.370000000000000000e+02 2.879850388618797865e+02
3.380000000000000000e+02 2.888514114295228410e+02
3.390000000000000000e+02 2.897288205655743809e+02
3.400000000000000000e+02 2.905897875343309806e+02
3.410000000000000000e+02 2.914505358761713865e+02
3.420000000000000000e+02 2.923110989575511667e+02
3.430000000000000000e+02 2.931834053744705670e+02
3.440000000000000000e+02 2.940658856176187896e+02
3.450000000000000000e+02 2.949413991052796291e+02
3.460000000000000000e+02 2.958183585289355619e+02
3.470000000000000000e+02 2.966862950309518965e+02
3.480000000000000000e+02 2.975613889645612176e+02
3.490000000000000000e+02 2.984222018605502171e+02
3.500000000000000000e+02 2.992840522662775697e+02
3.510000000000000000e+02 3.001274288236806456e+02
3.520000000000000000e+02 3.009734121030371625e+02
3.530000000000000000e+02 3.018255071227213762e+02
3.540000000000000000e+02 3.026838829111497375e+02
3.550000000000000000e+02 3.035440861823080354e+02
3.560000000000000000e+02 3.043947558071586172e+02
3.570000000000000000e+02 3.052604436966195749e+02
3.580000000000000000e+02 3.061122781936513206e+02
3.590000000000000000e+02 3.069709016336469745e+02
3.600000000000000000e+02 3.078341128218991685e+02
3.610000000000000000e+02 3.086918578215389175e+02
3.620000000000000000e+02 3.095651470379533521e+02
3.630000000000000000e+02 3.104220435717068654e+02
3.640000000000000000e+02 3.112822815109026919e+02
3.650000000000000000e+02 3.121532362814000408e+02
3.660000000000000000e+02 3.130135009598606644e+02
3.670000000000000000e+02 3.138705110747971503e+02
3.680000000000000000e+02 3.147212608347796277e+02
3.690000000000000000e+02 3.155725258845774874e+02
3.700000000000000000e+02 3.164273156418953477e+02
3.710000000000000000e+02 3.172883061855734468e+02
3.720000000000000000e+02 3.181431799957447311e+02
3.730000000000000000e+02 3.190028322892517849e+02
3.740000000000000000e+02 3.198600635211518011e+02
3.750000000000000000e+02 3.207184973836651807e+02
3.760000000000000000e+02 3.215679671839673119e+02
3.770000000000000000e+02 3.224233684411602781e+02
3.780000000000000000e+02 3.232668244819082588e+02
3.790000000000000000e+02 3.241077793268263463e+02
3.800000000000000000e+02 3.249528641103796645e+02
3.810000000000000000e+02 3.257976606231708843e+02
3.820000000000000000e+02 3.266597073719067339e+02
3.830000000000000000e+02 3.275260016394961440e+02
3.840000000000000000e+02 3.284022088238972401e+02
3.850000000000000000e+02 3.292748959843189596e+02
3.860000000000000000e+02 3.301337793776768308e+02
3.870000000000000000e+02 3.310052141609153296e+02
3.880000000000000000e+02 3.318779766511456728e+02
3.890000000000000000e+02 3.327461349147446299e+02
3.900000000000000000e+02 3.336010146066582251e+02
3.910000000000000000e+02 3.344726129367648468e+02
3.920000000000000000e+02 3.353507715880562614e+02
3.930000000000000000e+02 3.362402140488323994e+02
3.940000000000000000e+02 3.371135396276275173e+02
3.950000000000000000e+02 3.379980701799079270e+02
3.960000000000000000e+02 3.388774491449511856e+02
3.970000000000000000e+02 3.397571451022672022e+02
3.980000000000000000e+02 3.406395774205842599e+02
