# time (ps)	msd (A2)
0.000000000000000000e+00 2.869342708822631653e-03
1.000000000000000000e+00 1.809593761236053977e+00
2.000000000000000000e+00 2.968955510742826931e+00
3.000000000000000000e+00 4.005696745618608112e+00
4.000000000000000000e+00 4.980089773152571730e+00
5.000000000000000000e+00 5.914866655210197166e+00
6.000000000000000000e+00 6.821628776136212657e+00
7.000000000000000000e+00 7.699228107827330803e+00
8.000000000000000000e+00 8.557401519813000235e+00
9.000000000000000000e+00 9.409713886418662909e+00
1.000000000000000000e+01 1.025093390670171978e+01
1.100000000000000000e+01 1.108189056810349804e+01
1.200000000000000000e+01 1.190665114307102534e+01
1.300000000000000000e+01 1.272861069082077812e+01
1.400000000000000000e+01 1.355091299582324638e+01
1.500000000000000000e+01 1.436697107603858647e+01
1.600000000000000000e+01 1.518167771612260708e+01
1.700000000000000000e+01 1.599694908754574918e+01
1.800000000000000000e+01 1.680777365547703894e+01
1.900000000000000000e+01 1.761739971348374567e+01
2.000000000000000000e+01 1.842758818618324668e+01
2.100000000000000000e+01 1.922903162360606544e+01
2.200000000000000000e+01 2.002783891029577745e+01
2.300000000000000000e+01 2.082828140566266839e+01
2.400000000000000000e+01 2.162385179040932215e+01
2.500000000000000000e+01 2.241527324310270686e+01
2.600000000000000000e+01 2.320830641089623825e+01
2.700000000000000000e+01 2.399578995727922504e+01
2.800000000000000000e+01 2.478479007484861185e+01
2.900000000000000000e+01 2.557819861700023623e+01
3.000000000000000000e+01 2.637631349364221478e+01
3.100000000000000000e+01 2.717183021385833896e+01
3.200000000000000000e+01 2.796142925232245702e+01
3.300000000000000000e+01 2.875150851396634266e+01
3.400000000000000000e+01 2.954821568517245112e+01
3.500000000000000000e+01 3.034373390864935871e+01
3.600000000000000000e+01 3.113741540109689865e+01
3.700000000000000000e+01 3.193681184158844744e+01
3.800000000000000000e+01 3.272955512177910009e+01
3.900000000000000000e+01 3.352986607439613209e+01
4.000000000000000000e+01 3.433535379872501636e+01
4.100000000000000000e+01 3.513952490028528786e+01
4.200000000000000000e+01 3.594165238883112323e+01
4.300000000000000000e+01 3.674339075085816120e+01
4.400000000000000000e+01 3.753882247657016791e+01
4.500000000000000000e+01 3.833144730233960473e+01
4.600000000000000000e+01 3.913246233663964091e+01
4.700000000000000000e+01 3.992880474295208870e+01
4.800000000000000000e+01 4.073473076110845170e+01
4.900000000000000000e+01 4.153538154270832905e+01
5.000000000000000000e+01 4.233934851536160693e+01
5.100000000000000000e+01 4.314362602944910208e+01
5.200000000000000000e+01 4.394327959957015395e+01
5.300000000000000000e+01 4.474077763197080770e+01
5.400000000000000000e+01 4.554425480878171584e+01
5.500000000000000000e+01 4.634782883439985568e+01
5.600000000000000000e+01 4.715229586675260265e+01
5.700000000000000000e+01 4.795506426306690884e+01
5.800000000000000000e+01 4.875712453256415557e+01
5.900000000000000000e+01 4.956053810896887057e+01
6.000000000000000000e+01 5.036255963061174867e+01
6.100000000000000000e+01 5.116546776245254335e+01
6.200000000000000000e+01 5.196167903950733802e+01
6.300000000000000000e+01 5.276020147499388457e+01
6.400000000000000000e+01 5.355328637219051302e+01
6.500000000000000000e+01 5.434063893519014954e+01
6.600000000000000000e+01 5.513180127418785759e+01
6.700000000000000000e+01 5.592709372120074107e+01
6.800000000000000000e+01 5.672078994038390221e+01
6.900000000000000000e+01 5.751021115228711977e+01
7.000000000000000000e+01 5.829764004239785180e+01
7.100000000000000000e+01 5.908676377867526952e+01
7.200000000000000000e+01 5.987698245201048053e+01
7.300000000000000000e+01 6.066003200240256632e+01
7.400000000000000000e+01 6.144636301130619671e+01
7.500000000000000000e+01 6.223732630513841713e+01
7.600000000000000000e+01 6.302795234827748772e+01
7.700000000000000000e+01 6.382779017298751256e+01
7.800000000000000000e+01 6.462470156208307515e+01
7.900000000000000000e+01 6.541944855659427560e+01
8.000000000000000000e+01 6.622289422594313635e+01
8.100000000000000000e+01 6.702003643087921603e+01
8.200000000000000000e+01 6.782302210672811782e+01
8.300000000000000000e+01 6.862776986628641396e+01
8.400000000000000000e+01 6.942618095967442571e+01
8.500000000000000000e+01 7.022246336369704522e+01
8.600000000000000000e+01 7.101937977077099617e+01
8.700000000000000000e+01 7.181585959388060303e+01
8.800000000000000000e+01 7.261383786388036299e+01
8.900000000000000000e+01 7.341301320304852140e+01
9.000000000000000000e+01 7.421410073887170711e+01
9.100000000000000000e+01 7.501590326165207046e+01
9.200000000000000000e+01 7.581891681170702668e+01
9.300000000000000000e+01 7.662576839008194440e+01
9.400000000000000000e+01 7.742668885069356577e+01
9.500000000000000000e+01 7.822984974263573577e+01
9.600000000000000000e+01 7.902483482446864116e+01
9.700000000000000000e+01 7.982979584116613125e+01
9.800000000000000000e+01 8.063591304252062741e+01
9.900000000000000000e+01 8.143557154518521202e+01
1.000000000000000000e+02 8.223888986890572994e+01
1.010000000000000000e+02 8.303574194819783827e+01
1.020000000000000000e+02 8.384096224700132893e+01
1.030000000000000000e+02 8.464729301890301372e+01
1.040000000000000000e+02 8.545228873462822605e+01
1.050000000000000000e+02 8.625302269447426795e+01
1.060000000000000000e+02 8.705511516972705977e+01
1.070000000000000000e+02 8.786321199445318086e+01
1.080000000000000000e+02 8.866450139479445625e+01
1.090000000000000000e+02 8.946716297773923543e+01
1.100000000000000000e+02 9.026571021885189339e+01
1.110000000000000000e+02 9.105957327955680114e+01
1.120000000000000000e+02 9.185362169855496006e+01
1.130000000000000000e+02 9.265031789617815150e+01
1.140000000000000000e+02 9.344205410711974480e+01
1.150000000000000000e+02 9.423772896009059252e+01
1.160000000000000000e+02 9.503223789419585898e+01
1.170000000000000000e+02 9.582782141252336316e+01
1.180000000000000000e+02 9.662345980862956196e+01
1.190000000000000000e+02 9.741973653441135639e+01
1.200000000000000000e+02 9.821464012584289094e+01
1.210000000000000000e+02 9.900374403505236387e+01
1.220000000000000000e+02 9.979599801665746384e+01
1.230000000000000000e+02 1.005880625833035111e+02
1.240000000000000000e+02 1.013834778295237840e+02
1.250000000000000000e+02 1.021796558738067660e+02
1.260000000000000000e+02 1.029772236559022787e+02
1.270000000000000000e+02 1.037817746686161939e+02
1.280000000000000000e+02 1.045848629550950903e+02
1.290000000000000000e+02 1.053783800489886602e+02
1.300000000000000000e+02 1.061743010170996939e+02
1.310000000000000000e+02 1.069760827731313952e+02
1.320000000000000000e+02 1.077754320559228489e+02
1.330000000000000000e+02 1.085825774726536110e+02
1.340000000000000000e+02 1.093905942179624731e+02
1.350000000000000000e+02 1.101973051059207336e+02
1.360000000000000000e+02 1.110044696064738190e+02
1.370000000000000000e+02 1.118129379961294916e+02
1.380000000000000000e+02 1.126192552397530307e+02
1.390000000000000000e+02 1.134341114690585641e+02
1.400000000000000000e+02 1.142466759914078551e+02
1.410000000000000000e+02 1.150625670748336802e+02
1.420000000000000000e+02 1.158777754003532436e+02
1.430000000000000000e+02 1.166897249278740105e+02
1.440000000000000000e+02 1.174977676243619129e+02
1.450000000000000000e+02 1.183066542609533940e+02
1.460000000000000000e+02 1.191135708978910515e+02
1.470000000000000000e+02 1.199223669500047862e+02
1.480000000000000000e+02 1.207356952620895783e+02
1.490000000000000000e+02 1.215439938863669767e+02
1.500000000000000000e+02 1.223583514068498772e+02
1.510000000000000000e+02 1.231805092287708021e+02
1.520000000000000000e+02 1.240044231441813025e+02
1.530000000000000000e+02 1.248190827275476522e+02
1.540000000000000000e+02 1.256403453617134147e+02
1.550000000000000000e+02 1.264536357729976288e+02
1.560000000000000000e+02 1.272694806753037682e+02
1.570000000000000000e+02 1.280859266331493416e+02
1.580000000000000000e+02 1.289025608724205370e+02
1.590000000000000000e+02 1.297211075238731723e+02
1.600000000000000000e+02 1.305350850894470511e+02
1.610000000000000000e+02 1.313481560076726282e+02
1.620000000000000000e+02 1.321620754073136936e+02
1.630000000000000000e+02 1.329661635238009865e+02
1.640000000000000000e+02 1.337760232246393173e+02
1.650000000000000000e+02 1.345815982917771123e+02
1.660000000000000000e+02 1.353862128821261592e+02
1.670000000000000000e+02 1.361901655739635544e+02
1.680000000000000000e+02 1.369970879153895282e+02
1.690000000000000000e+02 1.377947835694754133e+02
1.700000000000000000e+02 1.386057669995302319e+02
1.710000000000000000e+02 1.394190608532108797e+02
1.720000000000000000e+02 1.402350303064333445e+02
1.730000000000000000e+02 1.410502739156958114e+02
1.740000000000000000e+02 1.418577000627842892e+02
1.750000000000000000e+02 1.426709220365255248e+02
1.760000000000000000e+02 1.434857829938820544e+02
1.770000000000000000e+02 1.443018046826334455e+02
1.780000000000000000e+02 1.451129296386353928e+02
1.790000000000000000e+02 1.459340959482364894e+02
1.800000000000000000e+02 1.467553702675093632e+02
1.810000000000000000e+02 1.475714341717723244e+02
1.820000000000000000e+02 1.483914234136534844e+02
1.830000000000000000e+02 1.492089676299239613e+02
1.840000000000000000e+02 1.500248431909111559e+02
1.850000000000000000e+02 1.508481872788787825e+02
1.860000000000000000e+02 1.516609782815451979e+02
1.870000000000000000e+02 1.524775658605641127e+02
1.880000000000000000e+02 1.532869319529129086e+02
1.890000000000000000e+02 1.541028194848156261e+02
1.900000000000000000e+02 1.549204615433120580e+02
1.910000000000000000e+02 1.557390822156199022e+02
1.920000000000000000e+02 1.565594354397962036e+02
1.930000000000000000e+02 1.573873761054957470e+02
1.940000000000000000e+02 1.582056674816259374e+02
1.950000000000000000e+02 1.590248314406800034e+02
1.960000000000000000e+02 1.598454526381382266e+02
1.970000000000000000e+02 1.606674024494168123e+02
1.980000000000000000e+02 1.614863981188731543e+02
1.990000000000000000e+02 1.623030502071636363e+02
2.000000000000000000e+02 1.631217578584608532e+02
2.010000000000000000e+02 1.639407012818515739e+02
2.020000000000000000e+02 1.647608848106872017e+02
2.030000000000000000e+02 1.655848120569064861e+02
2.040000000000000000e+02 1.663995630216364816e+02
2.050000000000000000e+02 1.672156688244544114e+02
2.060000000000000000e+02 1.680295637587693136e+02
2.070000000000000000e+02 1.688420005143653668e+02
2.080000000000000000e+02 1.696563219272662195e+02
2.090000000000000000e+02 1.704735610927631058e+02
2.100000000000000000e+02 1.712951477875213016e+02
2.110000000000000000e+02 1.721207937252733871e+02
2.120000000000000000e+02 1.729464459436106836e+02
2.130000000000000000e+02 1.737674923304578840e+02
2.140000000000000000e+02 1.745833246093246487e+02
2.150000000000000000e+02 1.753986159747228157e+02
2.160000000000000000e+02 1.762181893164258497e+02
2.170000000000000000e+02 1.770351786907884559e+02
2.180000000000000000e+02 1.778566687570817919e+02
2.190000000000000000e+02 1.786777526155716203e+02
2.200000000000000000e+02 1.795056293545635526e+02
2.210000000000000000e+02 1.803268527624535693e+02
2.220000000000000000e+02 1.811543904681334425e+02
2.230000000000000000e+02 1.819800410146718832e+02
2.240000000000000000e+02 1.828022897994761991e+02
2.250000000000000000e+02 1.836302990822054255e+02
2.260000000000000000e+02 1.844603029513217507e+02
2.270000000000000000e+02 1.852839654135570129e+02
2.280000000000000000e+02 1.861035387342306819e+02
2.290000000000000000e+02 1.869211216266045597e+02
2.300000000000000000e+02 1.877423548282680485e+02
2.310000000000000000e+02 1.885652801156634268e+02
2.320000000000000000e+02 1.893909559650460039e+02
2.330000000000000000e+02 1.902183142427000178e+02
2.340000000000000000e+02 1.910452561232046662e+02
2.350000000000000000e+02 1.918711871417824568e+02
2.360000000000000000e+02 1.926930463821289834e+02
2.370000000000000000e+02 1.935169633873216526e+02
2.380000000000000000e+02 1.943436399151442799e+02
2.390000000000000000e+02 1.951681739980059831e+02
2.400000000000000000e+02 1.959873535618964979e+02
2.410000000000000000e+02 1.968048182372986048e+02
2.420000000000000000e+02 1.976284291618798932e+02
2.430000000000000000e+02 1.984542711077089052e+02
2.440000000000000000e+02 1.992749339581531274e+02
2.450000000000000000e+02 2.000918444238741074e+02
2.460000000000000000e+02 2.009029771898668741e+02
2.470000000000000000e+02 2.017236244881319180e+02
2.480000000000000000e+02 2.025405342183395589e+02
2.490000000000000000e+02 2.033651451519084219e+02
2.500000000000000000e+02 2.041921373555004493e+02
2.510000000000000000e+02 2.050098053054124705e+02
2.520000000000000000e+02 2.058246411674334411e+02
2.530000000000000000e+02 2.066349143651681572e+02
2.540000000000000000e+02 2.074492023063848762e+02
2.550000000000000000e+02 2.082702198045263913e+02
2.560000000000000000e+02 2.090858661433536554e+02
2.570000000000000000e+02 2.099008261311286105e+02
2.580000000000000000e+02 2.107215373638497056e+02
2.590000000000000000e+02 2.115433236010676694e+02
2.600000000000000000e+02 2.123717857332248684e+02
2.610000000000000000e+02 2.131933832834392035e+02
2.620000000000000000e+02 2.140102640454199729e+02
2.630000000000000000e+02 2.148264593552266035e+02
2.640000000000000000e+02 2.156373154182341239e+02
2.650000000000000000e+02 2.164436385045032978e+02
2.660000000000000000e+02 2.172445373751538682e+02
2.670000000000000000e+02 2.180569079756844815e+02
2.680000000000000000e+02 2.188708360885936202e+02
2.690000000000000000e+02 2.196839157050454503e+02
2.700000000000000000e+02 2.204987423856746318e+02
2.710000000000000000e+02 2.213120235940542955e+02
2.720000000000000000e+02 2.221175226683077142e+02
2.730000000000000000e+02 2.229230539656431347e+02
2.740000000000000000e+02 2.237350328279852931e+02
2.750000000000000000e+02 2.245465970493429495e+02
2.760000000000000000e+02 2.253587556932945120e+02
2.770000000000000000e+02 2.261740114115608264e+02
2.780000000000000000e+02 2.269810678034258729e+02
2.790000000000000000e+02 2.277954061163418373e+02
2.800000000000000000e+02 2.286104860972334620e+02
2.810000000000000000e+02 2.294212312418711974e+02
2.820000000000000000e+02 2.302345076105735870e+02
2.830000000000000000e+02 2.310461511435576085e+02
2.840000000000000000e+02 2.318618756769668607e+02
2.850000000000000000e+02 2.326881829483645845e+02
2.860000000000000000e+02 2.335159058460717176e+02
2.870000000000000000e+02 2.343362609205609033e+02
2.880000000000000000e+02 2.351567889519888013e+02
2.890000000000000000e+02 2.359737031443682156e+02
2.900000000000000000e+02 2.367954857913136664e+02
2.910000000000000000e+02 2.376184828360363781e+02
2.920000000000000000e+02 2.384380996484921695e+02
2.930000000000000000e+02 2.392509450828657975e+02
2.940000000000000000e+02 2.400626270314767510e+02
2.950000000000000000e+02 2.408702179790338676e+02
2.960000000000000000e+02 2.416801780667630339e+02
2.970000000000000000e+02 2.425011295818784731e+02
2.980000000000000000e+02 2.433202899845466618e+02
2.990000000000000000e+02 2.441410203377930372e+02
3.000000000000000000e+02 2.449604573001426218e+02
3.010000000000000000e+02 2.457818442305412816e+02
3.020000000000000000e+02 2.465945523648194637e+02
3.030000000000000000e+02 2.474151415882659819e+02
3.040000000000000000e+02 2.482304725329454129e+02
3.050000000000000000e+02 2.490427490940269024e+02
3.060000000000000000e+02 2.498641407020368490e+02
3.070000000000000000e+02 2.506894884256526836e+02
3.080000000000000000e+02 2.515136042689619273e+02
3.090000000000000000e+02 2.523343035154412064e+02
3.100000000000000000e+02 2.531552696211940372e+02
3.110000000000000000e+02 2.539781729818400038e+02
3.120000000000000000e+02 2.547959990723257135e+02
3.130000000000000000e+02 2.556218634022863796e+02
3.140000000000000000e+02 2.564474356943654243e+02
3.150000000000000000e+02 2.572763516442840910e+02
3.160000000000000000e+02 2.581075393441648771e+02
3.170000000000000000e+02 2.589373059698625070e+02
3.180000000000000000e+02 2.597676874308314723e+02
3.190000000000000000e+02 2.605925924311111999e+02
3.200000000000000000e+02 2.614115967554326403e+02
3.210000000000000000e+02 2.622373261677385585e+02
3.220000000000000000e+02 2.630521822667976721e+02
3.230000000000000000e+02 2.638704563595355808e+02
3.240000000000000000e+02 2.646825637139270953e+02
3.250000000000000000e+02 2.655010173431797398e+02
3.260000000000000000e+02 2.663208632343540216e+02
3.270000000000000000e+02 2.671432609177338691e+02
3.280000000000000000e+02 2.679667724433097078e+02
3.290000000000000000e+02 2.687965853897363218e+02
3.300000000000000000e+02 2.696246896967023190e+02
3.310000000000000000e+02 2.704500618381842401e+02
3.320000000000000000e+02 2.712755367557485897e+02
3.330000000000000000e+02 2.721073071365333362e+02
3.340000000000000000e+02 2.729371198745814695e+02
3.350000000000000000e+02 2.737707568703484071e+02
3.360000000000000000e+02 2.746037954413662305e+02
3.370000000000000000e+02 2.754387934120079535e+02
3.380000000000000000e+02 2.762672783467106115e+02
3.390000000000000000e+02 2.771059178094709523e+02
3.400000000000000000e+02 2.779400017836024404e+02
3.410000000000000000e+02 2.787695279636666328e+02
3.420000000000000000e+02 2.796030385384650003e+02
3.430000000000000000e+02 2.804400764530373067e+02
3.440000000000000000e+02 2.812723967907631959e+02
3.450000000000000000e+02 2.821048040324549220e+02
3.460000000000000000e+02 2.829383115471724182e+02
3.470000000000000000e+02 2.837683210243430949e+02
3.480000000000000000e+02 2.846017457391996572e+02
3.490000000000000000e+02 2.854312627735083083e+02
3.500000000000000000e+02 2.862599340228773599e+02
3.510000000000000000e+02 2.870835149901791397e+02
3.520000000000000000e+02 2.879090821993596592e+02
3.530000000000000000e+02 2.887366675829086944e+02
3.540000000000000000e+02 2.895662049375791867e+02
3.550000000000000000e+02 2.904000087644867563e+02
3.560000000000000000e+02 2.912259060587584827e+02
3.570000000000000000e+02 2.920544309996807328e+02
3.580000000000000000e+02 2.928828267723749832e+02
3.590000000000000000e+02 2.937074707314939701e+02
3.600000000000000000e+02 2.945371492957701207e+02
3.610000000000000000e+02 2.953625199070307303e+02
3.620000000000000000e+02 2.962007960629021568e+02
3.630000000000000000e+02 2.970344023706231269e+02
3.640000000000000000e+02 2.978640850513421583e+02
3.650000000000000000e+02 2.986921168819628747e+02
3.660000000000000000e+02 2.995267469265623390e+02
3.670000000000000000e+02 3.003602537991542363e+02
3.680000000000000000e+02 3.011897958998788454e+02
3.690000000000000000e+02 3.020180919372077710e+02
3.700000000000000000e+02 3.028396338768825444e+02
3.710000000000000000e+02 3.036615745998305442e+02
3.720000000000000000e+02 3.044832439120127674e+02
3.730000000000000000e+02 3.053026808357232653e+02
3.740000000000000000e+02 3.061266799032231347e+02
3.750000000000000000e+02 3.069543383997433921e+02
3.760000000000000000e+02 3.077776622850797139e+02
3.770000000000000000e+02 3.086025727116564781e+02
3.780000000000000000e+02 3.094233067708598242e+02
3.790000000000000000e+02 3.102430832805904970e+02
3.800000000000000000e+02 3.110678201872719342e+02
3.810000000000000000e+02 3.118929485770177621e+02
3.820000000000000000e+02 3.127212041186530200e+02
3.830000000000000000e+02 3.135503672965483588e+02
3.840000000000000000e+02 3.143852448102267658e+02
3.850000000000000000e+02 3.152242780753646798e+02
3.860000000000000000e+02 3.160531472218344788e+02
3.870000000000000000e+02 3.168890422965093308e+02
3.880000000000000000e+02 3.177298875513051257e+02
3.890000000000000000e+02 3.185633807757531599e+02
3.900000000000000000e+02 3.193979856120537875e+02
3.910000000000000000e+02 3.202381253772659875e+02
3.920000000000000000e+02 3.210772940930982600e+02
3.930000000000000000e+02 3.219137783552284873e+02
3.940000000000000000e+02 3.227483192219048647e+02
3.950000000000000000e+02 3.235869796054408880e+02
3.960000000000000000e+02 3.244199711003946618e+02
3.970000000000000000e+02 3.252590446295150173e+02
3.980000000000000000e+02 3.260993004290419890e+02
