# time (ps)	msd (A2)
0.000000000000000000e+00 2.970874825396979581e-03
1.000000000000000000e+00 1.811889925821272174e+00
2.000000000000000000e+00 2.975526146975068897e+00
3.000000000000000000e+00 4.011520067425277780e+00
4.000000000000000000e+00 4.979769875697596326e+00
5.000000000000000000e+00 5.909867064353353960e+00
6.000000000000000000e+00 6.810233954588532868e+00
7.000000000000000000e+00 7.682130698754797926e+00
8.000000000000000000e+00 8.532832207370635302e+00
9.000000000000000000e+00 9.377023869448525062e+00
1.000000000000000000e+01 1.021490258065458967e+01
1.100000000000000000e+01 1.104237911193466459e+01
1.200000000000000000e+01 1.185723127500161134e+01
1.300000000000000000e+01 1.266986921158819435e+01
1.400000000000000000e+01 1.348518220784400690e+01
1.500000000000000000e+01 1.429707225384633240e+01
1.600000000000000000e+01 1.510682833950927773e+01
1.700000000000000000e+01 1.591763387576789945e+01
1.800000000000000000e+01 1.671695301288022506e+01
1.900000000000000000e+01 1.752109676984406050e+01
2.000000000000000000e+01 1.832509516973996355e+01
2.100000000000000000e+01 1.912098192042569522e+01
2.200000000000000000e+01 1.991130848241493112e+01
2.300000000000000000e+01 2.070230940045647827e+01
2.400000000000000000e+01 2.149687913922259597e+01
2.500000000000000000e+01 2.228472313584917330e+01
2.600000000000000000e+01 2.307478189838440130e+01
2.700000000000000000e+01 2.385127530466064627e+01
2.800000000000000000e+01 2.463599995050508440e+01
2.900000000000000000e+01 2.542171639497555091e+01
3.000000000000000000e+01 2.621208616065444019e+01
3.100000000000000000e+01 2.700074369201825775e+01
3.200000000000000000e+01 2.778551684027764068e+01
3.300000000000000000e+01 2.856365790738782451e+01
3.400000000000000000e+01 2.934880857954898659e+01
3.500000000000000000e+01 3.013728304760374499e+01
3.600000000000000000e+01 3.092888036656599482e+01
3.700000000000000000e+01 3.172855192918507328e+01
3.800000000000000000e+01 3.252511696245542794e+01
3.900000000000000000e+01 3.333005187491578170e+01
4.000000000000000000e+01 3.414146627382717014e+01
4.100000000000000000e+01 3.495465246358495648e+01
4.200000000000000000e+01 3.576730969089555146e+01
4.300000000000000000e+01 3.657583136371582810e+01
4.400000000000000000e+01 3.738055223077605405e+01
4.500000000000000000e+01 3.817705819069435336e+01
4.600000000000000000e+01 3.898037191644631605e+01
4.700000000000000000e+01 3.977737428072038028e+01
4.800000000000000000e+01 4.058478891915239473e+01
4.900000000000000000e+01 4.138543849259059471e+01
5.000000000000000000e+01 4.218416094740788935e+01
5.100000000000000000e+01 4.298627690394349088e+01
5.200000000000000000e+01 4.377830840214416952e+01
5.300000000000000000e+01 4.456914486095829631e+01
5.400000000000000000e+01 4.536649041913657499e+01
5.500000000000000000e+01 4.616347924750249376e+01
5.600000000000000000e+01 4.696145429682366057e+01
5.700000000000000000e+01 4.776042847032177718e+01
5.800000000000000000e+01 4.855612083779853805e+01
5.900000000000000000e+01 4.934758373089677974e+01
6.000000000000000000e+01 5.014165415733091891e+01
6.100000000000000000e+01 5.093865754137365087e+01
6.200000000000000000e+01 5.173005398519460840e+01
6.300000000000000000e+01 5.252159664996696620e+01
6.400000000000000000e+01 5.331547994359726772e+01
6.500000000000000000e+01 5.409965614804934830e+01
6.600000000000000000e+01 5.488782290866870284e+01
6.700000000000000000e+01 5.568337632723315522e+01
6.800000000000000000e+01 5.648068271773473015e+01
6.900000000000000000e+01 5.727026808652032486e+01
7.000000000000000000e+01 5.806105252804548655e+01
7.100000000000000000e+01 5.885005072526058001e+01
7.200000000000000000e+01 5.963995510408503264e+01
7.300000000000000000e+01 6.041835827343612664e+01
7.400000000000000000e+01 6.119987048265269181e+01
7.500000000000000000e+01 6.198530789835846377e+01
7.600000000000000000e+01 6.276880869240539340e+01
7.700000000000000000e+01 6.356293783846967926e+01
7.800000000000000000e+01 6.435134620070569156e+01
7.900000000000000000e+01 6.514175691496387799e+01
8.000000000000000000e+01 6.594125573036556887e+01
8.100000000000000000e+01 6.673783985873619429e+01
8.200000000000000000e+01 6.754056571165742184e+01
8.300000000000000000e+01 6.834224372935139513e+01
8.400000000000000000e+01 6.913868277310849919e+01
8.500000000000000000e+01 6.993251952344832034e+01
8.600000000000000000e+01 7.072926527594133006e+01
8.700000000000000000e+01 7.152055556744720377e+01
8.800000000000000000e+01 7.231771518034769031e+01
8.900000000000000000e+01 7.311396989682792480e+01
9.000000000000000000e+01 7.390986573793003345e+01
9.100000000000000000e+01 7.470918905524847276e+01
9.200000000000000000e+01 7.550661888095386587e+01
9.300000000000000000e+01 7.631404990619485318e+01
9.400000000000000000e+01 7.711770461841081215e+01
9.500000000000000000e+01 7.792051482709605637e+01
9.600000000000000000e+01 7.871931116093283265e+01
9.700000000000000000e+01 7.952165667174473640e+01
9.800000000000000000e+01 8.032718824423564286e+01
9.900000000000000000e+01 8.112360560688915712e+01
1.000000000000000000e+02 8.193173292852473821e+01
1.010000000000000000e+02 8.272798884233908723e+01
1.020000000000000000e+02 8.352599513494534733e+01
1.030000000000000000e+02 8.432322234619836365e+01
1.040000000000000000e+02 8.512315302131264616e+01
1.050000000000000000e+02 8.591562383862215313e+01
1.060000000000000000e+02 8.671108546944685713e+01
1.070000000000000000e+02 8.751437213947694715e+01
1.080000000000000000e+02 8.831169493218776267e+01
1.090000000000000000e+02 8.911042247733176680e+01
1.100000000000000000e+02 8.990547250875219731e+01
1.110000000000000000e+02 9.069600638656648073e+01
1.120000000000000000e+02 9.148407976151979426e+01
1.130000000000000000e+02 9.227154166287580495e+01
1.140000000000000000e+02 9.305849643410645911e+01
1.150000000000000000e+02 9.384752864261450611e+01
1.160000000000000000e+02 9.463887180747933314e+01
1.170000000000000000e+02 9.543150376199554330e+01
1.180000000000000000e+02 9.621914153115319834e+01
1.190000000000000000e+02 9.700753103770290409e+01
1.200000000000000000e+02 9.779443550593811096e+01
1.210000000000000000e+02 9.857850490762227480e+01
1.220000000000000000e+02 9.936318911189232495e+01
1.230000000000000000e+02 1.001454101332749218e+02
1.240000000000000000e+02 1.009312581769034551e+02
1.250000000000000000e+02 1.017180322271377833e+02
1.260000000000000000e+02 1.025001713824288458e+02
1.270000000000000000e+02 1.032940899711360316e+02
1.280000000000000000e+02 1.040858588111113363e+02
1.290000000000000000e+02 1.048711795278246228e+02
1.300000000000000000e+02 1.056587616608657783e+02
1.310000000000000000e+02 1.064537470611344503e+02
1.320000000000000000e+02 1.072427780668983672e+02
1.330000000000000000e+02 1.080407706224629578e+02
1.340000000000000000e+02 1.088422256420182208e+02
1.350000000000000000e+02 1.096426154198156127e+02
1.360000000000000000e+02 1.104474227415804677e+02
1.370000000000000000e+02 1.112506416263491218e+02
1.380000000000000000e+02 1.120486319059151157e+02
1.390000000000000000e+02 1.128572330847794802e+02
1.400000000000000000e+02 1.136660200379117214e+02
1.410000000000000000e+02 1.144754079690361976e+02
1.420000000000000000e+02 1.152854426674650341e+02
1.430000000000000000e+02 1.160902987460489300e+02
1.440000000000000000e+02 1.168927470007774190e+02
1.450000000000000000e+02 1.176928526048105397e+02
1.460000000000000000e+02 1.184970773202002050e+02
1.470000000000000000e+02 1.193018736402098057e+02
1.480000000000000000e+02 1.201108895673605019e+02
1.490000000000000000e+02 1.209119448459076693e+02
1.500000000000000000e+02 1.217186318700329792e+02
1.510000000000000000e+02 1.225328858685372353e+02
1.520000000000000000e+02 1.233436670555698242e+02
1.530000000000000000e+02 1.241482667938407332e+02
1.540000000000000000e+02 1.249640415523912793e+02
1.550000000000000000e+02 1.257713492124320851e+02
1.560000000000000000e+02 1.265762278121432729e+02
1.570000000000000000e+02 1.273829867829866345e+02
1.580000000000000000e+02 1.281915279135832009e+02
1.590000000000000000e+02 1.290101576722614425e+02
1.600000000000000000e+02 1.298161756836463780e+02
1.610000000000000000e+02 1.306237477621893390e+02
1.620000000000000000e+02 1.314306866838336703e+02
1.630000000000000000e+02 1.322272807716389309e+02
1.640000000000000000e+02 1.330288813083570005e+02
1.650000000000000000e+02 1.338232211940961633e+02
1.660000000000000000e+02 1.346186512108543241e+02
1.670000000000000000e+02 1.354145507292552111e+02
1.680000000000000000e+02 1.362098934079939454e+02
1.690000000000000000e+02 1.369944560345799971e+02
1.700000000000000000e+02 1.377956058247882822e+02
1.710000000000000000e+02 1.385959759927266930e+02
1.720000000000000000e+02 1.394025173565945295e+02
1.730000000000000000e+02 1.402073333844840590e+02
1.740000000000000000e+02 1.410048803199680378e+02
1.750000000000000000e+02 1.418084779219486506e+02
1.760000000000000000e+02 1.426174568219882985e+02
1.770000000000000000e+02 1.434251073001501027e+02
1.780000000000000000e+02 1.442299715440786088e+02
1.790000000000000000e+02 1.450473059960185083e+02
1.800000000000000000e+02 1.458630780344593916e+02
1.810000000000000000e+02 1.466717494775696196e+02
1.820000000000000000e+02 1.474789409860974558e+02
1.830000000000000000e+02 1.482831741046823879e+02
1.840000000000000000e+02 1.490839589913453835e+02
1.850000000000000000e+02 1.498914605155081574e+02
1.860000000000000000e+02 1.506860711353114368e+02
1.870000000000000000e+02 1.514850663496809204e+02
1.880000000000000000e+02 1.522779173323519615e+02
1.890000000000000000e+02 1.530843495002594636e+02
1.900000000000000000e+02 1.538874607037070916e+02
1.910000000000000000e+02 1.546954713478700114e+02
1.920000000000000000e+02 1.554959368832915061e+02
1.930000000000000000e+02 1.563074457000083726e+02
1.940000000000000000e+02 1.571028797508870696e+02
1.950000000000000000e+02 1.579000492630169390e+02
1.960000000000000000e+02 1.586995220092228465e+02
1.970000000000000000e+02 1.595033847335784287e+02
1.980000000000000000e+02 1.603008035509398326e+02
1.990000000000000000e+02 1.610983764533256135e+02
2.000000000000000000e+02 1.618981968228284529e+02
2.010000000000000000e+02 1.626949133395822571e+02
2.020000000000000000e+02 1.634906589252468905e+02
2.030000000000000000e+02 1.642888290990066764e+02
2.040000000000000000e+02 1.650808081010085289e+02
2.050000000000000000e+02 1.658785300205911710e+02
2.060000000000000000e+02 1.666777158248497415e+02
2.070000000000000000e+02 1.674773085156155048e+02
2.080000000000000000e+02 1.682777821564139629e+02
2.090000000000000000e+02 1.690794492624167162e+02
2.100000000000000000e+02 1.698854512376630908e+02
2.110000000000000000e+02 1.706911370052527275e+02
2.120000000000000000e+02 1.714979116618302157e+02
2.130000000000000000e+02 1.723040494595402379e+02
2.140000000000000000e+02 1.731026832788532772e+02
2.150000000000000000e+02 1.739010357229850570e+02
2.160000000000000000e+02 1.747098568220967536e+02
2.170000000000000000e+02 1.755121629371187737e+02
2.180000000000000000e+02 1.763174774569752401e+02
2.190000000000000000e+02 1.771318582688170693e+02
2.200000000000000000e+02 1.779490519272162885e+02
2.210000000000000000e+02 1.787588481519847790e+02
2.220000000000000000e+02 1.795717152734904403e+02
2.230000000000000000e+02 1.803818647714757901e+02
2.240000000000000000e+02 1.811914017836175219e+02
2.250000000000000000e+02 1.820075343310477365e+02
2.260000000000000000e+02 1.828220085058032680e+02
2.270000000000000000e+02 1.836278506949713574e+02
2.280000000000000000e+02 1.844298212069417389e+02
2.290000000000000000e+02 1.852295111036800392e+02
2.300000000000000000e+02 1.860341717287631980e+02
2.310000000000000000e+02 1.868346435919647774e+02
2.320000000000000000e+02 1.876400650280375828e+02
2.330000000000000000e+02 1.884482888206574387e+02
2.340000000000000000e+02 1.892593123904488266e+02
2.350000000000000000e+02 1.900698811728483690e+02
2.360000000000000000e+02 1.908765756814838426e+02
2.370000000000000000e+02 1.916833630167269860e+02
2.380000000000000000e+02 1.924969236606969787e+02
2.390000000000000000e+02 1.933084090757112392e+02
2.400000000000000000e+02 1.941165527221383229e+02
2.410000000000000000e+02 1.949286190971464237e+02
2.420000000000000000e+02 1.957452926080629538e+02
2.430000000000000000e+02 1.965670480708595278e+02
2.440000000000000000e+02 1.973852386515642650e+02
2.450000000000000000e+02 1.982019723588823581e+02
2.460000000000000000e+02 1.990072217777951948e+02
2.470000000000000000e+02 1.998194011981910592e+02
2.480000000000000000e+02 2.006300995919579293e+02
2.490000000000000000e+02 2.014578689724397975e+02
2.500000000000000000e+02 2.022876423194985307e+02
2.510000000000000000e+02 2.031067671865513091e+02
2.520000000000000000e+02 2.039239496004909427e+02
2.530000000000000000e+02 2.047424969075350418e+02
2.540000000000000000e+02 2.055622598352127000e+02
2.550000000000000000e+02 2.063921999096013735e+02
2.560000000000000000e+02 2.072188592101751681e+02
2.570000000000000000e+02 2.080362703746968691e+02
2.580000000000000000e+02 2.088588130404733931e+02
2.590000000000000000e+02 2.096833564015995250e+02
2.600000000000000000e+02 2.105207411792690948e+02
2.610000000000000000e+02 2.113465201984634803e+02
2.620000000000000000e+02 2.121610519867842868e+02
2.630000000000000000e+02 2.129782125102019563e+02
2.640000000000000000e+02 2.137888652515376577e+02
2.650000000000000000e+02 2.145997563091503650e+02
2.660000000000000000e+02 2.153996869917153560e+02
2.670000000000000000e+02 2.162109626735733343e+02
2.680000000000000000e+02 2.170213218980294130e+02
2.690000000000000000e+02 2.178338341586568276e+02
2.700000000000000000e+02 2.186506278843781672e+02
2.710000000000000000e+02 2.194647336541870857e+02
2.720000000000000000e+02 2.202724153637061590e+02
2.730000000000000000e+02 2.210757245990845661e+02
2.740000000000000000e+02 2.218877724415535795e+02
2.750000000000000000e+02 2.227004366176871883e+02
2.760000000000000000e+02 2.235093042299814385e+02
2.770000000000000000e+02 2.243230577665337648e+02
2.780000000000000000e+02 2.251300474061740999e+02
2.790000000000000000e+02 2.259481201023169490e+02
2.800000000000000000e+02 2.267683410278003464e+02
2.810000000000000000e+02 2.275782063715652441e+02
2.820000000000000000e+02 2.283895309264952118e+02
2.830000000000000000e+02 2.292022883115127172e+02
2.840000000000000000e+02 2.300187973331248656e+02
2.850000000000000000e+02 2.308491183059638558e+02
2.860000000000000000e+02 2.316799140988376564e+02
2.870000000000000000e+02 2.325104239099743211e+02
2.880000000000000000e+02 2.333406979728326007e+02
2.890000000000000000e+02 2.341633942292884285e+02
2.900000000000000000e+02 2.349944073577684378e+02
2.910000000000000000e+02 2.358258142131193438e+02
2.920000000000000000e+02 2.366486082909081006e+02
2.930000000000000000e+02 2.374624214711326147e+02
2.940000000000000000e+02 2.382746581028698074e+02
2.950000000000000000e+02 2.390893796340619986e+02
2.960000000000000000e+02 2.399032633992414674e+02
2.970000000000000000e+02 2.407299283545110882e+02
2.980000000000000000e+02 2.415487063136780819e+02
2.990000000000000000e+02 2.423724518461071682e+02
3.000000000000000000e+02 2.432009563925974760e+02
3.010000000000000000e+02 2.440279750457277714e+02
3.020000000000000000e+02 2.448429085367472737e+02
3.030000000000000000e+02 2.456686763463837053e+02
3.040000000000000000e+02 2.464836865103372077e+02
3.050000000000000000e+02 2.472955344128875197e+02
3.060000000000000000e+02 2.481187824116947525e+02
3.070000000000000000e+02 2.489433948990510999e+02
3.080000000000000000e+02 2.497628576169708197e+02
3.090000000000000000e+02 2.505772633914558298e+02
3.100000000000000000e+02 2.513881947945409649e+02
3.110000000000000000e+02 2.522046008429685173e+02
3.120000000000000000e+02 2.530160268221736999e+02
3.130000000000000000e+02 2.538390444751763937e+02
3.140000000000000000e+02 2.546606689457332493e+02
3.150000000000000000e+02 2.554921413448226133e+02
3.160000000000000000e+02 2.563284392999899524e+02
3.170000000000000000e+02 2.571637842570509633e+02
3.180000000000000000e+02 2.580005004614875475e+02
3.190000000000000000e+02 2.588292401527513107e+02
3.200000000000000000e+02 2.596570923155740616e+02
3.210000000000000000e+02 2.604874979841704317e+02
3.220000000000000000e+02 2.613114194250836704e+02
3.230000000000000000e+02 2.621348708980312381e+02
3.240000000000000000e+02 2.629506440071184556e+02
3.250000000000000000e+02 2.637723709692741068e+02
3.260000000000000000e+02 2.645891661171388591e+02
3.270000000000000000e+02 2.654156742379832963e+02
3.280000000000000000e+02 2.662364097245572907e+02
3.290000000000000000e+02 2.670607226330450317e+02
3.300000000000000000e+02 2.678849735950605577e+02
3.310000000000000000e+02 2.687183003566341881e+02
3.320000000000000000e+02 2.695512249059904093e+02
3.330000000000000000e+02 2.703925761603349542e+02
3.340000000000000000e+02 2.712346273585073959e+02
3.350000000000000000e+02 2.720795453336996275e+02
3.360000000000000000e+02 2.729254534015133800e+02
3.370000000000000000e+02 2.737759436040137757e+02
3.380000000000000000e+02 2.746194041581240981e+02
3.390000000000000000e+02 2.754728187739492569e+02
3.400000000000000000e+02 2.763259678239092523e+02
3.410000000000000000e+02 2.771711438888441990e+02
3.420000000000000000e+02 2.780227452792848908e+02
3.430000000000000000e+02 2.788737134626215379e+02
3.440000000000000000e+02 2.797144232070949670e+02
3.450000000000000000e+02 2.805582549206843055e+02
3.460000000000000000e+02 2.814025920130191594e+02
3.470000000000000000e+02 2.822455917726846906e+02
3.480000000000000000e+02 2.830891940413901580e+02
3.490000000000000000e+02 2.839359783706379403e+02
3.500000000000000000e+02 2.847798165189183237e+02
3.510000000000000000e+02 2.856220727841400731e+02
3.520000000000000000e+02 2.864669933588203321e+02
3.530000000000000000e+02 2.873141909183384541e+02
3.540000000000000000e+02 2.881621130741841057e+02
3.550000000000000000e+02 2.890135531697125657e+02
3.560000000000000000e+02 2.898598832027753360e+02
3.570000000000000000e+02 2.906997306505138567e+02
3.580000000000000000e+02 2.915465596796744308e+02
3.590000000000000000e+02 2.923843140077518683e+02
3.600000000000000000e+02 2.932243518926591719e+02
3.610000000000000000e+02 2.940593441823228318e+02
3.620000000000000000e+02 2.949105553222692038e+02
3.630000000000000000e+02 2.957607764906530292e+02
3.640000000000000000e+02 2.966033391053894661e+02
3.650000000000000000e+02 2.974392727736707798e+02
3.660000000000000000e+02 2.982906947890548395e+02
3.670000000000000000e+02 2.991427057916145600e+02
3.680000000000000000e+02 2.999939417571527542e+02
3.690000000000000000e+02 3.008430458618419152e+02
3.700000000000000000e+02 3.016809882545249479e+02
3.710000000000000000e+02 3.025163278391167410e+02
3.720000000000000000e+02 3.033526620987215097e+02
3.730000000000000000e+02 3.041823356529084208e+02
3.740000000000000000e+02 3.050197872594442856e+02
3.750000000000000000e+02 3.058596751957235824e+02
3.760000000000000000e+02 3.066983842034875352e+02
3.770000000000000000e+02 3.075360571067615183e+02
3.780000000000000000e+02 3.083773822117020700e+02
3.790000000000000000e+02 3.092184173677151193e+02
3.800000000000000000e+02 3.100626099228544490e+02
3.810000000000000000e+02 3.109091604131101008e+02
3.820000000000000000e+02 3.117547961860756232e+02
3.830000000000000000e+02 3.125978913961861281e+02
3.840000000000000000e+02 3.134465692914077977e+02
3.850000000000000000e+02 3.143030971003372542e+02
3.860000000000000000e+02 3.151511591870116717e+02
3.870000000000000000e+02 3.160031556136976292e+02
3.880000000000000000e+02 3.168626136142848395e+02
3.890000000000000000e+02 3.177114430935948235e+02
3.900000000000000000e+02 3.185677753349423256e+02
3.910000000000000000e+02 3.194220021820543707e+02
3.920000000000000000e+02 3.202734066693230375e+02
3.930000000000000000e+02 3.211174687902483811e+02
3.940000000000000000e+02 3.219672629581261276e+02
3.950000000000000000e+02 3.228164393474171447e+02
3.960000000000000000e+02 3.236591917392351547e+02
3.970000000000000000e+02 3.245100762292747731e+02
3.980000000000000000e+02 3.253625617771613179e+02
