# time (ps)	msd (A2)
0.000000000000000000e+00 2.811244385488483651e-03
1.000000000000000000e+00 1.809438795507784858e+00
2.000000000000000000e+00 2.970897584193149754e+00
3.000000000000000000e+00 4.012410158152747819e+00
4.000000000000000000e+00 4.984252869251180051e+00
5.000000000000000000e+00 5.919478634322566712e+00
6.000000000000000000e+00 6.831741089249942611e+00
7.000000000000000000e+00 7.715571568960760906e+00
8.000000000000000000e+00 8.580995463812600477e+00
9.000000000000000000e+00 9.437927833008838974e+00
1.000000000000000000e+01 1.028155976272936734e+01
1.100000000000000000e+01 1.111653769980581252e+01
1.200000000000000000e+01 1.194501861783439445e+01
1.300000000000000000e+01 1.276992814362650819e+01
1.400000000000000000e+01 1.359502085411613592e+01
1.500000000000000000e+01 1.441090044531837044e+01
1.600000000000000000e+01 1.522671605059476541e+01
1.700000000000000000e+01 1.603975478438562874e+01
1.800000000000000000e+01 1.684108980929429222e+01
1.900000000000000000e+01 1.763875043769629158e+01
2.000000000000000000e+01 1.843702862591637981e+01
2.100000000000000000e+01 1.923214518128191131e+01
2.200000000000000000e+01 2.002486456087963873e+01
2.300000000000000000e+01 2.081185629455517372e+01
2.400000000000000000e+01 2.160120807256373254e+01
2.500000000000000000e+01 2.239318829160102453e+01
2.600000000000000000e+01 2.318120523459825577e+01
2.700000000000000000e+01 2.396051347097149176e+01
2.800000000000000000e+01 2.474433941326200070e+01
2.900000000000000000e+01 2.553351841459927485e+01
3.000000000000000000e+01 2.631996151312431564e+01
3.100000000000000000e+01 2.709975823804311190e+01
3.200000000000000000e+01 2.788996762862202061e+01
3.300000000000000000e+01 2.867645116388780480e+01
3.400000000000000000e+01 2.946983392486583853e+01
3.500000000000000000e+01 3.026501903483175582e+01
3.600000000000000000e+01 3.104912289450970420e+01
3.700000000000000000e+01 3.184731410300366861e+01
3.800000000000000000e+01 3.263489723381783136e+01
3.900000000000000000e+01 3.343211321027681748e+01
4.000000000000000000e+01 3.422620393862253962e+01
4.100000000000000000e+01 3.502272167604569830e+01
4.200000000000000000e+01 3.582549907240967713e+01
4.300000000000000000e+01 3.662326754188777755e+01
4.400000000000000000e+01 3.741847529504722303e+01
4.500000000000000000e+01 3.821357829368329107e+01
4.600000000000000000e+01 3.901179840893441764e+01
4.700000000000000000e+01 3.980035143062794845e+01
4.800000000000000000e+01 4.059863218677019603e+01
4.900000000000000000e+01 4.139467340291287201e+01
5.000000000000000000e+01 4.218469653180152790e+01
5.100000000000000000e+01 4.297535663673225059e+01
5.200000000000000000e+01 4.376427893103498690e+01
5.300000000000000000e+01 4.456538207926309525e+01
5.400000000000000000e+01 4.536741032924025063e+01
5.500000000000000000e+01 4.616991785956840744e+01
5.600000000000000000e+01 4.697473544577243132e+01
5.700000000000000000e+01 4.776999434039527159e+01
5.800000000000000000e+01 4.856198990441777141e+01
5.900000000000000000e+01 4.934461177560618239e+01
6.000000000000000000e+01 5.013599197342725944e+01
6.100000000000000000e+01 5.092003291515493402e+01
6.200000000000000000e+01 5.170448570230902874e+01
6.300000000000000000e+01 5.249233860144565966e+01
6.400000000000000000e+01 5.328483747848920160e+01
6.500000000000000000e+01 5.407099818945287240e+01
6.600000000000000000e+01 5.485533328869407654e+01
6.700000000000000000e+01 5.563631984870533387e+01
6.800000000000000000e+01 5.643040632666095036e+01
6.900000000000000000e+01 5.721829413470212700e+01
7.000000000000000000e+01 5.799894172486275323e+01
7.100000000000000000e+01 5.879068002739173693e+01
7.200000000000000000e+01 5.957917204783263543e+01
7.300000000000000000e+01 6.036441178658162698e+01
7.400000000000000000e+01 6.114977830717352703e+01
7.500000000000000000e+01 6.193376822775162083e+01
7.600000000000000000e+01 6.271522424810461871e+01
7.700000000000000000e+01 6.350201121501274315e+01
7.800000000000000000e+01 6.428827001541822028e+01
7.900000000000000000e+01 6.507405213166974534e+01
8.000000000000000000e+01 6.585982652346837085e+01
8.100000000000000000e+01 6.663905730866662225e+01
8.200000000000000000e+01 6.742425177583231743e+01
8.300000000000000000e+01 6.821190327133230369e+01
8.400000000000000000e+01 6.899636039297901391e+01
8.500000000000000000e+01 6.977230213166235728e+01
8.600000000000000000e+01 7.054857500366898648e+01
8.700000000000000000e+01 7.132306427532341786e+01
8.800000000000000000e+01 7.209716288191617650e+01
8.900000000000000000e+01 7.287619802830802485e+01
9.000000000000000000e+01 7.365637902853097785e+01
9.100000000000000000e+01 7.443589228409577174e+01
9.200000000000000000e+01 7.520471850133701253e+01
9.300000000000000000e+01 7.597862742981457984e+01
9.400000000000000000e+01 7.675991432738737785e+01
9.500000000000000000e+01 7.754122315118731024e+01
9.600000000000000000e+01 7.832621803027137730e+01
9.700000000000000000e+01 7.912253275693143451e+01
9.800000000000000000e+01 7.991511425245930411e+01
9.900000000000000000e+01 8.070101855234089783e+01
1.000000000000000000e+02 8.148713272477634462e+01
1.010000000000000000e+02 8.226855785086105755e+01
1.020000000000000000e+02 8.305762806299246392e+01
1.030000000000000000e+02 8.384164493288821518e+01
1.040000000000000000e+02 8.463376643046107972e+01
1.050000000000000000e+02 8.542170694753617965e+01
1.060000000000000000e+02 8.621301072609907123e+01
1.070000000000000000e+02 8.700682936578805027e+01
1.080000000000000000e+02 8.779658549218068231e+01
1.090000000000000000e+02 8.859061256884412217e+01
1.100000000000000000e+02 8.937385484192547835e+01
1.110000000000000000e+02 9.016113524036130400e+01
1.120000000000000000e+02 9.094263768641610568e+01
1.130000000000000000e+02 9.172274104646025705e+01
1.140000000000000000e+02 9.250126992145455063e+01
1.150000000000000000e+02 9.328243130751218359e+01
1.160000000000000000e+02 9.406463796644145248e+01
1.170000000000000000e+02 9.484699354154302853e+01
1.180000000000000000e+02 9.562653857292234250e+01
1.190000000000000000e+02 9.640893568680047565e+01
1.200000000000000000e+02 9.717745978546257390e+01
1.210000000000000000e+02 9.794771130884795696e+01
1.220000000000000000e+02 9.871750551392648276e+01
1.230000000000000000e+02 9.948729974221508598e+01
1.240000000000000000e+02 1.002648874557344101e+02
1.250000000000000000e+02 1.010413930838087850e+02
1.260000000000000000e+02 1.018031569630126825e+02
1.270000000000000000e+02 1.025785596889454609e+02
1.280000000000000000e+02 1.033434504208574509e+02
1.290000000000000000e+02 1.041029995984972629e+02
1.300000000000000000e+02 1.048638798543124722e+02
1.310000000000000000e+02 1.056312949319344625e+02
1.320000000000000000e+02 1.063924727121141558e+02
1.330000000000000000e+02 1.071549867924361621e+02
1.340000000000000000e+02 1.079283922563368634e+02
1.350000000000000000e+02 1.086958758566234451e+02
1.360000000000000000e+02 1.094612786494758581e+02
1.370000000000000000e+02 1.102289147403749325e+02
1.380000000000000000e+02 1.109902152544661220e+02
1.390000000000000000e+02 1.117615969668762546e+02
1.400000000000000000e+02 1.125337007065764539e+02
1.410000000000000000e+02 1.133031245073802893e+02
1.420000000000000000e+02 1.140819839790784300e+02
1.430000000000000000e+02 1.148581524847283362e+02
1.440000000000000000e+02 1.156337018143207160e+02
1.450000000000000000e+02 1.164010175653430252e+02
1.460000000000000000e+02 1.171632004184574924e+02
1.470000000000000000e+02 1.179304453126849808e+02
1.480000000000000000e+02 1.187000786662213585e+02
1.490000000000000000e+02 1.194712547329368846e+02
1.500000000000000000e+02 1.202414688203948714e+02
1.510000000000000000e+02 1.210142130929361741e+02
1.520000000000000000e+02 1.217826875122918437e+02
1.530000000000000000e+02 1.225429396828519515e+02
1.540000000000000000e+02 1.233117052745587898e+02
1.550000000000000000e+02 1.240836224975617910e+02
1.560000000000000000e+02 1.248521512188654157e+02
1.570000000000000000e+02 1.256260912668302439e+02
1.580000000000000000e+02 1.263989091720907680e+02
1.590000000000000000e+02 1.271774286351954970e+02
1.600000000000000000e+02 1.279486140997864112e+02
1.610000000000000000e+02 1.287199269139232740e+02
1.620000000000000000e+02 1.294866573834488861e+02
1.630000000000000000e+02 1.302555459212936739e+02
1.640000000000000000e+02 1.310258510401634169e+02
1.650000000000000000e+02 1.317955165486128237e+02
1.660000000000000000e+02 1.325619116310228947e+02
1.670000000000000000e+02 1.333265106436655003e+02
1.680000000000000000e+02 1.340875717661123474e+02
1.690000000000000000e+02 1.348475722674973838e+02
1.700000000000000000e+02 1.356191006187879964e+02
1.710000000000000000e+02 1.363941401189202622e+02
1.720000000000000000e+02 1.371777904429352759e+02
1.730000000000000000e+02 1.379590012082179840e+02
1.740000000000000000e+02 1.387321604068591796e+02
1.750000000000000000e+02 1.395143800103012666e+02
1.760000000000000000e+02 1.402941249301296409e+02
1.770000000000000000e+02 1.410759820680806058e+02
1.780000000000000000e+02 1.418619951902589662e+02
1.790000000000000000e+02 1.426560741664623322e+02
1.800000000000000000e+02 1.434452795190354948e+02
1.810000000000000000e+02 1.442274173289985981e+02
1.820000000000000000e+02 1.450069639182570427e+02
1.830000000000000000e+02 1.457877381919457491e+02
1.840000000000000000e+02 1.465769319536297246e+02
1.850000000000000000e+02 1.473631307406828626e+02
1.860000000000000000e+02 1.481468959146450004e+02
1.870000000000000000e+02 1.489249958064323494e+02
1.880000000000000000e+02 1.497050740482537492e+02
1.890000000000000000e+02 1.504906081598854257e+02
1.900000000000000000e+02 1.512729878051111143e+02
1.910000000000000000e+02 1.520527628748066036e+02
1.920000000000000000e+02 1.528416135022335993e+02
1.930000000000000000e+02 1.536294628601261820e+02
1.940000000000000000e+02 1.544075788514246881e+02
1.950000000000000000e+02 1.551865675791701449e+02
1.960000000000000000e+02 1.559682933387641981e+02
1.970000000000000000e+02 1.567498788526748683e+02
1.980000000000000000e+02 1.575281344950450091e+02
1.990000000000000000e+02 1.583141583669082593e+02
2.000000000000000000e+02 1.591030065075236735e+02
2.010000000000000000e+02 1.598945925507485128e+02
2.020000000000000000e+02 1.606822300302056021e+02
2.030000000000000000e+02 1.614712179420050688e+02
2.040000000000000000e+02 1.622573645621350806e+02
2.050000000000000000e+02 1.630573008970278863e+02
2.060000000000000000e+02 1.638528100158541747e+02
2.070000000000000000e+02 1.646430817494092480e+02
2.080000000000000000e+02 1.654357649814086528e+02
2.090000000000000000e+02 1.662199259911857041e+02
2.100000000000000000e+02 1.670104434526055002e+02
2.110000000000000000e+02 1.678038338479082370e+02
2.120000000000000000e+02 1.685992103025506594e+02
2.130000000000000000e+02 1.694006469151640601e+02
2.140000000000000000e+02 1.701944197930501730e+02
2.150000000000000000e+02 1.709979818081723124e+02
2.160000000000000000e+02 1.718005718542923148e+02
2.170000000000000000e+02 1.726008355514505865e+02
2.180000000000000000e+02 1.734012131414520184e+02
2.190000000000000000e+02 1.742136424757381121e+02
2.200000000000000000e+02 1.750251446132294006e+02
2.210000000000000000e+02 1.758397328250507599e+02
2.220000000000000000e+02 1.766501149111505526e+02
2.230000000000000000e+02 1.774655212404678934e+02
2.240000000000000000e+02 1.782805292138950506e+02
2.250000000000000000e+02 1.790951497342615255e+02
2.260000000000000000e+02 1.799055000807851172e+02
2.270000000000000000e+02 1.807132304024380289e+02
2.280000000000000000e+02 1.815220289793201118e+02
2.290000000000000000e+02 1.823257183619668638e+02
2.300000000000000000e+02 1.831344091284320257e+02
2.310000000000000000e+02 1.839425246635425140e+02
2.320000000000000000e+02 1.847517878298553740e+02
2.330000000000000000e+02 1.855582837387687505e+02
2.340000000000000000e+02 1.863694819513042091e+02
2.350000000000000000e+02 1.871803049642894337e+02
2.360000000000000000e+02 1.879939415507411695e+02
2.370000000000000000e+02 1.887975726054480674e+02
2.380000000000000000e+02 1.896115386331943284e+02
2.390000000000000000e+02 1.904212135658697207e+02
2.400000000000000000e+02 1.912297689237954330e+02
2.410000000000000000e+02 1.920447779520626170e+02
2.420000000000000000e+02 1.928634681139745055e+02
2.430000000000000000e+02 1.936849581915805913e+02
2.440000000000000000e+02 1.945041129303744185e+02
2.450000000000000000e+02 1.953300527081979396e+02
2.460000000000000000e+02 1.961462912241583183e+02
2.470000000000000000e+02 1.969700059078202514e+02
2.480000000000000000e+02 1.977918785529912782e+02
2.490000000000000000e+02 1.986213556973405900e+02
2.500000000000000000e+02 1.994480036187008807e+02
2.510000000000000000e+02 2.002578299316620871e+02
2.520000000000000000e+02 2.010721721426007491e+02
2.530000000000000000e+02 2.018920586432556377e+02
2.540000000000000000e+02 2.027164735498898551e+02
2.550000000000000000e+02 2.035515058363459104e+02
2.560000000000000000e+02 2.043833387197655611e+02
2.570000000000000000e+02 2.052104745505945687e+02
2.580000000000000000e+02 2.060321439205292506e+02
2.590000000000000000e+02 2.068577200523255613e+02
2.600000000000000000e+02 2.076868777407238156e+02
2.610000000000000000e+02 2.085149579612321133e+02
2.620000000000000000e+02 2.093358565952734409e+02
2.630000000000000000e+02 2.101538731432328575e+02
2.640000000000000000e+02 2.109689577660534496e+02
2.650000000000000000e+02 2.117790098200707689e+02
2.660000000000000000e+02 2.125843389515308672e+02
2.670000000000000000e+02 2.133945935778478997e+02
2.680000000000000000e+02 2.142099133463700582e+02
2.690000000000000000e+02 2.150322319184641913e+02
2.700000000000000000e+02 2.158462044554485431e+02
2.710000000000000000e+02 2.166641808622329393e+02
2.720000000000000000e+02 2.174766728952523636e+02
2.730000000000000000e+02 2.182927930397497391e+02
2.740000000000000000e+02 2.191163663234769956e+02
2.750000000000000000e+02 2.199393942690444419e+02
2.760000000000000000e+02 2.207619956449956078e+02
2.770000000000000000e+02 2.215871434890499643e+02
2.780000000000000000e+02 2.224128104359934639e+02
2.790000000000000000e+02 2.232442873448382272e+02
2.800000000000000000e+02 2.240802931852412030e+02
2.810000000000000000e+02 2.249082633149681669e+02
2.820000000000000000e+02 2.257323772488197449e+02
2.830000000000000000e+02 2.265600669192885164e+02
2.840000000000000000e+02 2.273946086691335893e+02
2.850000000000000000e+02 2.282386902510799018e+02
2.860000000000000000e+02 2.290884271339182590e+02
2.870000000000000000e+02 2.299363765198337433e+02
2.880000000000000000e+02 2.307856331846245723e+02
2.890000000000000000e+02 2.316357495173143946e+02
2.900000000000000000e+02 2.324874248646782746e+02
2.910000000000000000e+02 2.333361378355555189e+02
2.920000000000000000e+02 2.341796584578233649e+02
2.930000000000000000e+02 2.350179167296911089e+02
2.940000000000000000e+02 2.358535249674494025e+02
2.950000000000000000e+02 2.366928212907212128e+02
2.960000000000000000e+02 2.375355834655536285e+02
2.970000000000000000e+02 2.383819995114273524e+02
2.980000000000000000e+02 2.392207710182808285e+02
2.990000000000000000e+02 2.400679157934102648e+02
3.000000000000000000e+02 2.409104400292427215e+02
3.010000000000000000e+02 2.417527957725096996e+02
3.020000000000000000e+02 2.425911591045152420e+02
3.030000000000000000e+02 2.434406320361711948e+02
3.040000000000000000e+02 2.442804535824980974e+02
3.050000000000000000e+02 2.451316226431130474e+02
3.060000000000000000e+02 2.459891662731704685e+02
3.070000000000000000e+02 2.468393996488120194e+02
3.080000000000000000e+02 2.476826136795610580e+02
3.090000000000000000e+02 2.485270925039299073e+02
3.100000000000000000e+02 2.493662520966639420e+02
3.110000000000000000e+02 2.502146021386400037e+02
3.120000000000000000e+02 2.510554875410616376e+02
3.130000000000000000e+02 2.519034948734941679e+02
3.140000000000000000e+02 2.527498436035861857e+02
3.150000000000000000e+02 2.536023432706557230e+02
3.160000000000000000e+02 2.544652117284755661e+02
3.170000000000000000e+02 2.553255612140660844e+02
3.180000000000000000e+02 2.561786814680781390e+02
3.190000000000000000e+02 2.570316483668394767e+02
3.200000000000000000e+02 2.578747407460316481e+02
3.210000000000000000e+02 2.587159651805894214e+02
3.220000000000000000e+02 2.595577399596792247e+02
3.230000000000000000e+02 2.603884519963418143e+02
3.240000000000000000e+02 2.612214581258116937e+02
3.250000000000000000e+02 2.620587038741502397e+02
3.260000000000000000e+02 2.628888817919784628e+02
3.270000000000000000e+02 2.637299850343943604e+02
3.280000000000000000e+02 2.645672589098926437e+02
3.290000000000000000e+02 2.654100350730464015e+02
3.300000000000000000e+02 2.662517069418843789e+02
3.310000000000000000e+02 2.670927135384056896e+02
3.320000000000000000e+02 2.679366327503648790e+02
3.330000000000000000e+02 2.687759658572463763e+02
3.340000000000000000e+02 2.696271637450768708e+02
3.350000000000000000e+02 2.704657079724190112e+02
3.360000000000000000e+02 2.713178653459585234e+02
3.370000000000000000e+02 2.721768048904945658e+02
3.380000000000000000e+02 2.730368245457470948e+02
3.390000000000000000e+02 2.738973871030009946e+02
3.400000000000000000e+02 2.747544436766402214e+02
3.410000000000000000e+02 2.756023841111532420e+02
3.420000000000000000e+02 2.764547597949726310e+02
3.430000000000000000e+02 2.773095767230413458e+02
3.440000000000000000e+02 2.781534913767195007e+02
3.450000000000000000e+02 2.790018620392356183e+02
3.460000000000000000e+02 2.798460215940132798e+02
3.470000000000000000e+02 2.806963273981149882e+02
3.480000000000000000e+02 2.815454362192336930e+02
3.490000000000000000e+02 2.823971668618739841e+02
3.500000000000000000e+02 2.832441948349992913e+02
3.510000000000000000e+02 2.840769784885351328e+02
3.520000000000000000e+02 2.849126300044935647e+02
3.530000000000000000e+02 2.857547247834745008e+02
3.540000000000000000e+02 2.865911413072451523e+02
3.550000000000000000e+02 2.874361353155263714e+02
3.560000000000000000e+02 2.882766975538324346e+02
3.570000000000000000e+02 2.891128425932324149e+02
3.580000000000000000e+02 2.899591596821580310e+02
3.590000000000000000e+02 2.907896887555661465e+02
3.600000000000000000e+02 2.916265924331914903e+02
3.610000000000000000e+02 2.924545967594406761e+02
3.620000000000000000e+02 2.932898529419382498e+02
3.630000000000000000e+02 2.941231124952478808e+02
3.640000000000000000e+02 2.949544016807487878e+02
3.650000000000000000e+02 2.957786305179400870e+02
3.660000000000000000e+02 2.966137734035339690e+02
3.670000000000000000e+02 2.974465764959297758e+02
3.680000000000000000e+02 2.982812320171750002e+02
3.690000000000000000e+02 2.991136145069926329e+02
3.700000000000000000e+02 2.999442721046991096e+02
3.710000000000000000e+02 3.007727708435550653e+02
3.720000000000000000e+02 3.015954184020435491e+02
3.730000000000000000e+02 3.024196396545091829e+02
3.740000000000000000e+02 3.032511816395258393e+02
3.750000000000000000e+02 3.040782557130154942e+02
3.760000000000000000e+02 3.049150409943258069e+02
3.770000000000000000e+02 3.057498574927776644e+02
3.780000000000000000e+02 3.065955303235848532e+02
3.790000000000000000e+02 3.074348399357848507e+02
3.800000000000000000e+02 3.082765301368202131e+02
3.810000000000000000e+02 3.091205714120091557e+02
3.820000000000000000e+02 3.099703894364731127e+02
3.830000000000000000e+02 3.108155984901598003e+02
3.840000000000000000e+02 3.116628981983695326e+02
3.850000000000000000e+02 3.125147449369472383e+02
3.860000000000000000e+02 3.133667932780968499e+02
3.870000000000000000e+02 3.142206169120590289e+02
3.880000000000000000e+02 3.150746746971171319e+02
3.890000000000000000e+02 3.159221340221877767e+02
3.900000000000000000e+02 3.167723017818473181e+02
3.910000000000000000e+02 3.176227008308887889e+02
3.920000000000000000e+02 3.184735781148114029e+02
3.930000000000000000e+02 3.193169437209534181e+02
3.940000000000000000e+02 3.201674802187846467e+02
3.950000000000000000e+02 3.210121850008492856e+02
3.960000000000000000e+02 3.218513691790888060e+02
3.970000000000000000e+02 3.227003650929718219e+02
3.980000000000000000e+02 3.235559459356645675e+02
