# time (ps)	msd (pm2)
0.000000000000000000e+00 2.315277757484561320e-03
1.000000000000000000e+00 1.810664672832255517e+00
2.000000000000000000e+00 2.959825928086701197e+00
3.000000000000000000e+00 3.978404985539422345e+00
4.000000000000000000e+00 4.941199857114733973e+00
5.000000000000000000e+00 5.850532305117815746e+00
6.000000000000000000e+00 6.732339665893663394e+00
7.000000000000000000e+00 7.594835528242545486e+00
8.000000000000000000e+00 8.437925159296828070e+00
9.000000000000000000e+00 9.268569640502180462e+00
1.000000000000000000e+01 1.008654123962860538e+01
1.100000000000000000e+01 1.089225109514002376e+01
1.200000000000000000e+01 1.169100532753001787e+01
1.300000000000000000e+01 1.249275449026975515e+01
1.400000000000000000e+01 1.328942219207670838e+01
1.500000000000000000e+01 1.408589004189298421e+01
1.600000000000000000e+01 1.487764868393234252e+01
1.700000000000000000e+01 1.567285891080416604e+01
1.800000000000000000e+01 1.646344859293604301e+01
1.900000000000000000e+01 1.725564082008995825e+01
2.000000000000000000e+01 1.805238760492689920e+01
2.100000000000000000e+01 1.883382456151502282e+01
2.200000000000000000e+01 1.961908548137437691e+01
2.300000000000000000e+01 2.041221589711060247e+01
2.400000000000000000e+01 2.119956389399383312e+01
2.500000000000000000e+01 2.196774859944431313e+01
2.600000000000000000e+01 2.273264100322541736e+01
2.700000000000000000e+01 2.349736660541531563e+01
2.800000000000000000e+01 2.426774810414203287e+01
2.900000000000000000e+01 2.503701766441971444e+01
3.000000000000000000e+01 2.581138692579156313e+01
3.100000000000000000e+01 2.658321432347590019e+01
3.200000000000000000e+01 2.734166541917717552e+01
3.300000000000000000e+01 2.811157737655768329e+01
3.400000000000000000e+01 2.887937616122187023e+01
3.500000000000000000e+01 2.964978946673034699e+01
3.600000000000000000e+01 3.041881978286645705e+01
3.700000000000000000e+01 3.118567239567795468e+01
3.800000000000000000e+01 3.195796977863207289e+01
3.900000000000000000e+01 3.274149948478171979e+01
4.000000000000000000e+01 3.353522316639146794e+01
4.100000000000000000e+01 3.433240231654697538e+01
4.200000000000000000e+01 3.511624389547512948e+01
4.300000000000000000e+01 3.590456940674842201e+01
4.400000000000000000e+01 3.668891621363986388e+01
4.500000000000000000e+01 3.746428423004728359e+01
4.600000000000000000e+01 3.824841300368441210e+01
4.700000000000000000e+01 3.902228722499106794e+01
4.800000000000000000e+01 3.980642711298661141e+01
4.900000000000000000e+01 4.057462482381342994e+01
5.000000000000000000e+01 4.135031119905860919e+01
5.100000000000000000e+01 4.213334162296386864e+01
5.200000000000000000e+01 4.290844437880399198e+01
5.300000000000000000e+01 4.368013024377243880e+01
5.400000000000000000e+01 4.446214760204409089e+01
5.500000000000000000e+01 4.524618571085123619e+01
5.600000000000000000e+01 4.603386129145074790e+01
5.700000000000000000e+01 4.681579371982912363e+01
5.800000000000000000e+01 4.759400235385334810e+01
5.900000000000000000e+01 4.837948655503083728e+01
6.000000000000000000e+01 4.916302806475950860e+01
6.100000000000000000e+01 4.993844872507659005e+01
6.200000000000000000e+01 5.071303876982003089e+01
6.300000000000000000e+01 5.150204773722914098e+01
6.400000000000000000e+01 5.227801927402890669e+01
6.500000000000000000e+01 5.305284762032719215e+01
6.600000000000000000e+01 5.382686949688238087e+01
6.700000000000000000e+01 5.460459207984098384e+01
6.800000000000000000e+01 5.538294173014316613e+01
6.900000000000000000e+01 5.616011780953734700e+01
7.000000000000000000e+01 5.694576530485512222e+01
7.100000000000000000e+01 5.773181084163402232e+01
7.200000000000000000e+01 5.852216365288774824e+01
7.300000000000000000e+01 5.930328645600716442e+01
7.400000000000000000e+01 6.010111744728187233e+01
7.500000000000000000e+01 6.088987623494988100e+01
7.600000000000000000e+01 6.167414395817729655e+01
7.700000000000000000e+01 6.246976697349890628e+01
7.800000000000000000e+01 6.326415024166204404e+01
7.900000000000000000e+01 6.405668229934626368e+01
8.000000000000000000e+01 6.486748917420612770e+01
8.100000000000000000e+01 6.567722741995632418e+01
8.200000000000000000e+01 6.649005955322088823e+01
8.300000000000000000e+01 6.730637995777242111e+01
8.400000000000000000e+01 6.810933929076381332e+01
8.500000000000000000e+01 6.890313574513895389e+01
8.600000000000000000e+01 6.969741698529756491e+01
8.700000000000000000e+01 7.048782936855792514e+01
8.800000000000000000e+01 7.129308056903718693e+01
8.900000000000000000e+01 7.209805515178133817e+01
9.000000000000000000e+01 7.289940756534036836e+01
9.100000000000000000e+01 7.369262423873928469e+01
9.200000000000000000e+01 7.449407969827406362e+01
9.300000000000000000e+01 7.529717434864480197e+01
9.400000000000000000e+01 7.609019364105668615e+01
9.500000000000000000e+01 7.688131209084112072e+01
9.600000000000000000e+01 7.766821747869516912e+01
9.700000000000000000e+01 7.845231434061017239e+01
9.800000000000000000e+01 7.924223306936997346e+01
9.900000000000000000e+01 8.002035941951753273e+01
1.000000000000000000e+02 8.080361678389027702e+01
1.010000000000000000e+02 8.156914843117412772e+01
1.020000000000000000e+02 8.234128157243674195e+01
1.030000000000000000e+02 8.311521607188225857e+01
1.040000000000000000e+02 8.388233535891644976e+01
1.050000000000000000e+02 8.464815427090783828e+01
1.060000000000000000e+02 8.541264461377795669e+01
1.070000000000000000e+02 8.617836629399427295e+01
1.080000000000000000e+02 8.694093488561347272e+01
1.090000000000000000e+02 8.769711020778410671e+01
1.100000000000000000e+02 8.844774189340485293e+01
1.110000000000000000e+02 8.919397738564443046e+01
1.120000000000000000e+02 8.994279082012035076e+01
1.130000000000000000e+02 9.069595443840970006e+01
1.140000000000000000e+02 9.144180022718467171e+01
1.150000000000000000e+02 9.219408004777649523e+01
1.160000000000000000e+02 9.294325780942762094e+01
1.170000000000000000e+02 9.369521316637523967e+01
1.180000000000000000e+02 9.443884311994375480e+01
1.190000000000000000e+02 9.518573005399188958e+01
1.200000000000000000e+02 9.593604316982458613e+01
1.210000000000000000e+02 9.668494592458564796e+01
1.220000000000000000e+02 9.743038587047325905e+01
1.230000000000000000e+02 9.817687407530557664e+01
1.240000000000000000e+02 9.892202784808196725e+01
1.250000000000000000e+02 9.966946157742455625e+01
1.260000000000000000e+02 1.004228603602028471e+02
1.270000000000000000e+02 1.011803074444583643e+02
1.280000000000000000e+02 1.019458202645160441e+02
1.290000000000000000e+02 1.026905919132639298e+02
1.300000000000000000e+02 1.034470451424105022e+02
1.310000000000000000e+02 1.042063394259435540e+02
1.320000000000000000e+02 1.049537598809187102e+02
1.330000000000000000e+02 1.057023961797468417e+02
1.340000000000000000e+02 1.064469989953572338e+02
1.350000000000000000e+02 1.072079412618687684e+02
1.360000000000000000e+02 1.079583949667296991e+02
1.370000000000000000e+02 1.087202498594664632e+02
1.380000000000000000e+02 1.094799975706447697e+02
1.390000000000000000e+02 1.102418321609416978e+02
1.400000000000000000e+02 1.110012659187811010e+02
1.410000000000000000e+02 1.117763122361728847e+02
1.420000000000000000e+02 1.125396494372794507e+02
1.430000000000000000e+02 1.133007988395850134e+02
1.440000000000000000e+02 1.140600731971196637e+02
1.450000000000000000e+02 1.148210565913321517e+02
1.460000000000000000e+02 1.155818902725036281e+02
1.470000000000000000e+02 1.163409859880372181e+02
1.480000000000000000e+02 1.171018671561701012e+02
1.490000000000000000e+02 1.178556783450960950e+02
1.500000000000000000e+02 1.186216716249058862e+02
1.510000000000000000e+02 1.193916782857063623e+02
1.520000000000000000e+02 1.201587187037134186e+02
1.530000000000000000e+02 1.209206085150217973e+02
1.540000000000000000e+02 1.216877280381442290e+02
1.550000000000000000e+02 1.224459165335923814e+02
1.560000000000000000e+02 1.232131812001638451e+02
1.570000000000000000e+02 1.239691419507318955e+02
1.580000000000000000e+02 1.247316149411025634e+02
1.590000000000000000e+02 1.254883578615360733e+02
1.600000000000000000e+02 1.262414256434116737e+02
1.610000000000000000e+02 1.269857575260853650e+02
1.620000000000000000e+02 1.277356995529325587e+02
1.630000000000000000e+02 1.284768931109207983e+02
1.640000000000000000e+02 1.292232775852106386e+02
1.650000000000000000e+02 1.299526186034664761e+02
1.660000000000000000e+02 1.306842970829862338e+02
1.670000000000000000e+02 1.314277231961690404e+02
1.680000000000000000e+02 1.321768271284223033e+02
1.690000000000000000e+02 1.329088423417485672e+02
1.700000000000000000e+02 1.336530600346518156e+02
1.710000000000000000e+02 1.343990336794077791e+02
1.720000000000000000e+02 1.351514436745917180e+02
1.730000000000000000e+02 1.359028754534211032e+02
1.740000000000000000e+02 1.366471786069124335e+02
1.750000000000000000e+02 1.373989628450987937e+02
1.760000000000000000e+02 1.381462328186354966e+02
1.770000000000000000e+02 1.388956894797071868e+02
1.780000000000000000e+02 1.396361553362473273e+02
1.790000000000000000e+02 1.403805922972217957e+02
1.800000000000000000e+02 1.411317582326138904e+02
1.810000000000000000e+02 1.418812358965124361e+02
1.820000000000000000e+02 1.426351673240472167e+02
1.830000000000000000e+02 1.433876466344500500e+02
1.840000000000000000e+02 1.441382600148417907e+02
1.850000000000000000e+02 1.448894514371963282e+02
1.860000000000000000e+02 1.456337159122552123e+02
1.870000000000000000e+02 1.463929347998657704e+02
1.880000000000000000e+02 1.471412981265142434e+02
1.890000000000000000e+02 1.478960610922109140e+02
1.900000000000000000e+02 1.486552755227370426e+02
1.910000000000000000e+02 1.494214472759247769e+02
1.920000000000000000e+02 1.501846141755147528e+02
1.930000000000000000e+02 1.509599689820120716e+02
1.940000000000000000e+02 1.517190811078206991e+02
1.950000000000000000e+02 1.524760752128748322e+02
1.960000000000000000e+02 1.532358145167420673e+02
1.970000000000000000e+02 1.539923471362668863e+02
1.980000000000000000e+02 1.547448502740747074e+02
1.990000000000000000e+02 1.554868308317165031e+02
2.000000000000000000e+02 1.562356388105282008e+02
2.010000000000000000e+02 1.569854110338585258e+02
2.020000000000000000e+02 1.577386307582133611e+02
2.030000000000000000e+02 1.585001682925414457e+02
2.040000000000000000e+02 1.592493699319876725e+02
2.050000000000000000e+02 1.599901710504453547e+02
2.060000000000000000e+02 1.607364565904141784e+02
2.070000000000000000e+02 1.614826959675212947e+02
2.080000000000000000e+02 1.622173708234318497e+02
2.090000000000000000e+02 1.629603544482081077e+02
2.100000000000000000e+02 1.637153559366619220e+02
2.110000000000000000e+02 1.644823544382950899e+02
2.120000000000000000e+02 1.652464090130370096e+02
2.130000000000000000e+02 1.659963354666795681e+02
2.140000000000000000e+02 1.667416808435209248e+02
2.150000000000000000e+02 1.674791236670226340e+02
2.160000000000000000e+02 1.682175437451234359e+02
2.170000000000000000e+02 1.689531737214971940e+02
2.180000000000000000e+02 1.696929961196686634e+02
2.190000000000000000e+02 1.704256483546882066e+02
2.200000000000000000e+02 1.711686820277613208e+02
2.210000000000000000e+02 1.719149642409379624e+02
2.220000000000000000e+02 1.726659879125569432e+02
2.230000000000000000e+02 1.734054819866412060e+02
2.240000000000000000e+02 1.741391992719966026e+02
2.250000000000000000e+02 1.748970444909990647e+02
2.260000000000000000e+02 1.756519358267589723e+02
2.270000000000000000e+02 1.764002415589271493e+02
2.280000000000000000e+02 1.771385576328801221e+02
2.290000000000000000e+02 1.778718991129435096e+02
2.300000000000000000e+02 1.786109768831228166e+02
2.310000000000000000e+02 1.793500968856631346e+02
2.320000000000000000e+02 1.800989485560594687e+02
2.330000000000000000e+02 1.808433685461086498e+02
2.340000000000000000e+02 1.815892830362119810e+02
2.350000000000000000e+02 1.823263311519558556e+02
2.360000000000000000e+02 1.830613481002936282e+02
2.370000000000000000e+02 1.837927708514386325e+02
2.380000000000000000e+02 1.845263199823768332e+02
2.390000000000000000e+02 1.852591832562015668e+02
2.400000000000000000e+02 1.859771016472443250e+02
2.410000000000000000e+02 1.867043334084274591e+02
2.420000000000000000e+02 1.874319443408979566e+02
2.430000000000000000e+02 1.881716747124616234e+02
2.440000000000000000e+02 1.889091558635108470e+02
2.450000000000000000e+02 1.896379709527349462e+02
2.460000000000000000e+02 1.903552885563545942e+02
2.470000000000000000e+02 1.910938158146693411e+02
2.480000000000000000e+02 1.918252698505934291e+02
2.490000000000000000e+02 1.925581911054575528e+02
2.500000000000000000e+02 1.932935147613336824e+02
2.510000000000000000e+02 1.940304995027266273e+02
2.520000000000000000e+02 1.947620387853244779e+02
2.530000000000000000e+02 1.954771088619088459e+02
2.540000000000000000e+02 1.961949752257210378e+02
2.550000000000000000e+02 1.969331785063651807e+02
2.560000000000000000e+02 1.976554532065926537e+02
2.570000000000000000e+02 1.983887620462843415e+02
2.580000000000000000e+02 1.991182854493156924e+02
2.590000000000000000e+02 1.998445953568961784e+02
2.600000000000000000e+02 2.005794550439395323e+02
2.610000000000000000e+02 2.013083229319184966e+02
2.620000000000000000e+02 2.020382749079895177e+02
2.630000000000000000e+02 2.027615311268111213e+02
2.640000000000000000e+02 2.034914112867933795e+02
2.650000000000000000e+02 2.042044125750333023e+02
2.660000000000000000e+02 2.049163930774758740e+02
2.670000000000000000e+02 2.056346507439088498e+02
2.680000000000000000e+02 2.063506418404177793e+02
2.690000000000000000e+02 2.070599911287411317e+02
2.700000000000000000e+02 2.077718830583531258e+02
2.710000000000000000e+02 2.084828504859602845e+02
2.720000000000000000e+02 2.091910058299735624e+02
2.730000000000000000e+02 2.098947015866108359e+02
2.740000000000000000e+02 2.106062357876355691e+02
2.750000000000000000e+02 2.113173657125755369e+02
2.760000000000000000e+02 2.120149548931974550e+02
2.770000000000000000e+02 2.127117457306318329e+02
2.780000000000000000e+02 2.134115176827998823e+02
2.790000000000000000e+02 2.141121480904035366e+02
2.800000000000000000e+02 2.148098129658625624e+02
2.810000000000000000e+02 2.155054307788675203e+02
2.820000000000000000e+02 2.162048510617100590e+02
2.830000000000000000e+02 2.168988916856400238e+02
2.840000000000000000e+02 2.176075482962779972e+02
2.850000000000000000e+02 2.183134203463632446e+02
2.860000000000000000e+02 2.190253291285821433e+02
2.870000000000000000e+02 2.197256090453623187e+02
2.880000000000000000e+02 2.204276192074480889e+02
2.890000000000000000e+02 2.211277118268094739e+02
2.900000000000000000e+02 2.218336125389844540e+02
2.910000000000000000e+02 2.225401290778617351e+02
2.920000000000000000e+02 2.232498912455618267e+02
2.930000000000000000e+02 2.239484625046913777e+02
2.940000000000000000e+02 2.246535747279322095e+02
2.950000000000000000e+02 2.253300403545753170e+02
2.960000000000000000e+02 2.260213648727070108e+02
2.970000000000000000e+02 2.267236756783049145e+02
2.980000000000000000e+02 2.274260750657881545e+02
2.990000000000000000e+02 2.281173046927644350e+02
3.000000000000000000e+02 2.288141364186831765e+02
3.010000000000000000e+02 2.295145590714435855e+02
3.020000000000000000e+02 2.302169145225819022e+02
3.030000000000000000e+02 2.309303517386887847e+02
3.040000000000000000e+02 2.316332578437497034e+02
3.050000000000000000e+02 2.323395994504757311e+02
3.060000000000000000e+02 2.330619885930205157e+02
3.070000000000000000e+02 2.337841191161339225e+02
3.080000000000000000e+02 2.345060682539615584e+02
3.090000000000000000e+02 2.352236360911189763e+02
3.100000000000000000e+02 2.359303467820338653e+02
3.110000000000000000e+02 2.366453920000710696e+02
3.120000000000000000e+02 2.373555869079428930e+02
3.130000000000000000e+02 2.380693430542823137e+02
3.140000000000000000e+02 2.387768051920173775e+02
3.150000000000000000e+02 2.394859757335270842e+02
3.160000000000000000e+02 2.402019972955164633e+02
3.170000000000000000e+02 2.409138808668211880e+02
3.180000000000000000e+02 2.416446368453688933e+02
3.190000000000000000e+02 2.423647824217153470e+02
3.200000000000000000e+02 2.430780212345809730e+02
3.210000000000000000e+02 2.438067408175014918e+02
3.220000000000000000e+02 2.445244653321198598e+02
3.230000000000000000e+02 2.452434370363313576e+02
3.240000000000000000e+02 2.459561500978161916e+02
3.250000000000000000e+02 2.466775527541562667e+02
3.260000000000000000e+02 2.473913136747233636e+02
3.270000000000000000e+02 2.481128997099893354e+02
3.280000000000000000e+02 2.488411372941612854e+02
3.290000000000000000e+02 2.495745929144846684e+02
3.300000000000000000e+02 2.502981321947007416e+02
3.310000000000000000e+02 2.510208113572475384e+02
3.320000000000000000e+02 2.517346669066477602e+02
3.330000000000000000e+02 2.524599836085897664e+02
3.340000000000000000e+02 2.531727122834193153e+02
3.350000000000000000e+02 2.538953279421406251e+02
3.360000000000000000e+02 2.546131254469717646e+02
3.370000000000000000e+02 2.553348519362468778e+02
3.380000000000000000e+02 2.560426347468458061e+02
3.390000000000000000e+02 2.567594094038291814e+02
3.400000000000000000e+02 2.574825321612250946e+02
3.410000000000000000e+02 2.582026643631244269e+02
3.420000000000000000e+02 2.589277974778327689e+02
3.430000000000000000e+02 2.596525075814178649e+02
3.440000000000000000e+02 2.603593398880568657e+02
3.450000000000000000e+02 2.610712612221173003e+02
3.460000000000000000e+02 2.617853761861057933e+02
3.470000000000000000e+02 2.625005607661007616e+02
3.480000000000000000e+02 2.632201143819050912e+02
3.490000000000000000e+02 2.639352378080358790e+02
3.500000000000000000e+02 2.646520500479539351e+02
3.510000000000000000e+02 2.653800139412934413e+02
3.520000000000000000e+02 2.661066889136226337e+02
3.530000000000000000e+02 2.668264184969941084e+02
3.540000000000000000e+02 2.675431245806235552e+02
3.550000000000000000e+02 2.682712207131667128e+02
3.560000000000000000e+02 2.689862751299077104e+02
3.570000000000000000e+02 2.697065066533036202e+02
3.580000000000000000e+02 2.704327252079237383e+02
3.590000000000000000e+02 2.711500790984142668e+02
3.600000000000000000e+02 2.718816144528446443e+02
3.610000000000000000e+02 2.726133712521379380e+02
3.620000000000000000e+02 2.733428163346985684e+02
3.630000000000000000e+02 2.740799976083655451e+02
3.640000000000000000e+02 2.748099299700792244e+02
3.650000000000000000e+02 2.755284104079651684e+02
3.660000000000000000e+02 2.762613952724881869e+02
3.670000000000000000e+02 2.769923832704874940e+02
3.680000000000000000e+02 2.777144284582554974e+02
3.690000000000000000e+02 2.784343622685659057e+02
3.700000000000000000e+02 2.791402072139296706e+02
3.710000000000000000e+02 2.798438517104860921e+02
3.720000000000000000e+02 2.805551171844226133e+02
3.730000000000000000e+02 2.812634134771108165e+02
3.740000000000000000e+02 2.819805905987022925e+02
3.750000000000000000e+02 2.827100100439592438e+02
3.760000000000000000e+02 2.834348867320810541e+02
3.770000000000000000e+02 2.841605280673337575e+02
3.780000000000000000e+02 2.848740450262361037e+02
3.790000000000000000e+02 2.855876889267447609e+02
3.800000000000000000e+02 2.863133631343086449e+02
3.810000000000000000e+02 2.870348889764346154e+02
3.820000000000000000e+02 2.877434214098778966e+02
3.830000000000000000e+02 2.884565263117393670e+02
3.840000000000000000e+02 2.891673433393426649e+02
3.850000000000000000e+02 2.898865851825383402e+02
3.860000000000000000e+02 2.905978470146182531e+02
3.870000000000000000e+02 2.913143586161322673e+02
3.880000000000000000e+02 2.920355311626848334e+02
3.890000000000000000e+02 2.927536855442452293e+02
3.900000000000000000e+02 2.934825584541795251e+02
3.910000000000000000e+02 2.942175198439028350e+02
3.920000000000000000e+02 2.949420013745080951e+02
3.930000000000000000e+02 2.956498356629611521e+02
3.940000000000000000e+02 2.963610472017955431e+02
3.950000000000000000e+02 2.970764192305780398e+02
3.960000000000000000e+02 2.977873530947602490e+02
3.970000000000000000e+02 2.985097488847310956e+02
3.980000000000000000e+02 2.992289624015993468e+02
