# time (ps)	msd (pm2)
0.000000000000000000e+00 3.395990650294993896e-05
5.000000000000000104e-03 2.700953523972050938e-03
1.000000000000000021e-02 1.025497842158662465e-02
1.499999999999999944e-02 2.179986917979739522e-02
2.000000000000000042e-02 3.589441653021453738e-02
2.500000000000000139e-02 5.113870712754659681e-02
2.999999999999999889e-02 6.608153251842249776e-02
3.500000000000000333e-02 7.981975532387330929e-02
4.000000000000000083e-02 9.178545837941322338e-02
4.499999999999999833e-02 1.017647500791289267e-01
5.000000000000000278e-02 1.099538716356608520e-01
5.500000000000000028e-02 1.168249608701309311e-01
5.999999999999999778e-02 1.228975976418023031e-01
6.500000000000000222e-02 1.286864298203534429e-01
7.000000000000000666e-02 1.346928804162132454e-01
7.499999999999999722e-02 1.412406936829757598e-01
8.000000000000000167e-02 1.484327930182210431e-01
8.500000000000000611e-02 1.564084423303062077e-01
8.999999999999999667e-02 1.648904590966658590e-01
9.500000000000000111e-02 1.736582146707330299e-01
1.000000000000000056e-01 1.825282998687178249e-01
1.049999999999999961e-01 1.911644469740397256e-01
1.100000000000000006e-01 1.993085720511057479e-01
1.150000000000000050e-01 2.068174235027969154e-01
1.199999999999999956e-01 2.135194863452581915e-01
1.250000000000000000e-01 2.195941084581024827e-01
1.300000000000000044e-01 2.249699696274704563e-01
1.350000000000000089e-01 2.298671299700775494e-01
1.400000000000000133e-01 2.344352625686058622e-01
1.449999999999999900e-01 2.387297206265527327e-01
1.499999999999999944e-01 2.429288420569627183e-01
1.549999999999999989e-01 2.471643019934571250e-01
1.600000000000000033e-01 2.513878288159890895e-01
1.650000000000000078e-01 2.557088269051099871e-01
1.700000000000000122e-01 2.599597642068752767e-01
1.750000000000000167e-01 2.641817566687638119e-01
1.799999999999999933e-01 2.682938562871285404e-01
1.849999999999999978e-01 2.723115346204495468e-01
1.900000000000000022e-01 2.762341174863588433e-01
1.950000000000000067e-01 2.800185018983701868e-01
2.000000000000000111e-01 2.837332756709621817e-01
2.050000000000000155e-01 2.873188662590478448e-01
2.099999999999999922e-01 2.908013797246958854e-01
2.149999999999999967e-01 2.942440203657587516e-01
2.200000000000000011e-01 2.976782211938632239e-01
2.250000000000000056e-01 3.010826081524883291e-01
2.300000000000000100e-01 3.044471853992333221e-01
2.350000000000000144e-01 3.078029092310240467e-01
2.399999999999999911e-01 3.110782716251795366e-01
2.449999999999999956e-01 3.143421411104488361e-01
2.500000000000000000e-01 3.175685305154835603e-01
2.550000000000000044e-01 3.207262343517178205e-01
2.600000000000000089e-01 3.238515959312818215e-01
2.650000000000000133e-01 3.270105339468723504e-01
2.700000000000000178e-01 3.301199956553165782e-01
2.750000000000000222e-01 3.333012159178583289e-01
2.800000000000000266e-01 3.364410939802121581e-01
2.850000000000000311e-01 3.396180444632585504e-01
2.899999999999999800e-01 3.427749238181109215e-01
2.949999999999999845e-01 3.459520154655596480e-01
2.999999999999999889e-01 3.490913707965269674e-01
3.049999999999999933e-01 3.522108453273251061e-01
3.099999999999999978e-01 3.553511055706867761e-01
3.150000000000000022e-01 3.583932203799279348e-01
3.200000000000000067e-01 3.613942672670455991e-01
3.250000000000000111e-01 3.643320482368804791e-01
3.300000000000000155e-01 3.672769631493988385e-01
3.350000000000000200e-01 3.701180259005429352e-01
3.400000000000000244e-01 3.728913791574448022e-01
3.450000000000000289e-01 3.756294124667319267e-01
3.500000000000000333e-01 3.782618162437448861e-01
3.549999999999999822e-01 3.808873125885354205e-01
3.599999999999999867e-01 3.834204122398555681e-01
3.649999999999999911e-01 3.859513918915135067e-01
3.699999999999999956e-01 3.884266136089634114e-01
3.750000000000000000e-01 3.908101412528262042e-01
3.800000000000000044e-01 3.931739196882882426e-01
3.850000000000000089e-01 3.954618780993370830e-01
3.900000000000000133e-01 3.977325854688030793e-01
3.950000000000000178e-01 3.999385864562683968e-01
4.000000000000000222e-01 4.020996921910355848e-01
4.050000000000000266e-01 4.042489634255057029e-01
4.100000000000000311e-01 4.063454232155865875e-01
4.150000000000000355e-01 4.084481559821748764e-01
4.199999999999999845e-01 4.105081639224282819e-01
4.249999999999999889e-01 4.125764887134798498e-01
4.299999999999999933e-01 4.146255178545141806e-01
4.349999999999999978e-01 4.165807582822293464e-01
4.400000000000000022e-01 4.185514157276994940e-01
4.450000000000000067e-01 4.205355815979546219e-01
4.500000000000000111e-01 4.224519077138635392e-01
4.550000000000000155e-01 4.243229622530751977e-01
4.600000000000000200e-01 4.261536277722559052e-01
4.650000000000000244e-01 4.280305174653744604e-01
4.700000000000000289e-01 4.298816695138170663e-01
4.750000000000000333e-01 4.317570390241881051e-01
4.799999999999999822e-01 4.336700040217257301e-01
4.849999999999999867e-01 4.356159546749073241e-01
4.899999999999999911e-01 4.375813533182738579e-01
4.949999999999999956e-01 4.396135259322574429e-01
5.000000000000000000e-01 4.416939800006717820e-01
5.050000000000000044e-01 4.437851572439958647e-01
5.100000000000000089e-01 4.459253615226378420e-01
5.150000000000000133e-01 4.480544983386914870e-01
5.200000000000000178e-01 4.501528580685334457e-01
5.250000000000000222e-01 4.522356000905965456e-01
5.300000000000000266e-01 4.543820078672267115e-01
5.350000000000000311e-01 4.564424645594601371e-01
5.400000000000000355e-01 4.585879777190037254e-01
5.450000000000000400e-01 4.606640377952701537e-01
5.500000000000000444e-01 4.627343793846661058e-01
5.550000000000000488e-01 4.648192050391698471e-01
5.600000000000000533e-01 4.668413886637547972e-01
5.650000000000000577e-01 4.689148235689333255e-01
5.700000000000000622e-01 4.709515429510393592e-01
5.750000000000000666e-01 4.730285104470833835e-01
5.799999999999999600e-01 4.751422110235319907e-01
5.849999999999999645e-01 4.772280929329365540e-01
5.899999999999999689e-01 4.794359082726962207e-01
5.949999999999999734e-01 4.815833565707879349e-01
5.999999999999999778e-01 4.837122976270640806e-01
6.049999999999999822e-01 4.858719301210993602e-01
6.099999999999999867e-01 4.879773429754047931e-01
6.149999999999999911e-01 4.900611736331482726e-01
6.199999999999999956e-01 4.921242751017216310e-01
6.250000000000000000e-01 4.941783048728017325e-01
6.300000000000000044e-01 4.961334842480982221e-01
6.350000000000000089e-01 4.981229918053041716e-01
6.400000000000000133e-01 5.000963765174953890e-01
6.450000000000000178e-01 5.021008627718716033e-01
6.500000000000000222e-01 5.041499590118075913e-01
6.550000000000000266e-01 5.062080171461246225e-01
6.600000000000000311e-01 5.083211045523500227e-01
6.650000000000000355e-01 5.103874504019241254e-01
6.700000000000000400e-01 5.125237495035535051e-01
6.750000000000000444e-01 5.146407876745905385e-01
6.800000000000000488e-01 5.167337463391029617e-01
6.850000000000000533e-01 5.188109730540328979e-01
6.900000000000000577e-01 5.208983285565614851e-01
6.950000000000000622e-01 5.229199612588570911e-01
7.000000000000000666e-01 5.249099216159619496e-01
7.049999999999999600e-01 5.268738121488536486e-01
7.099999999999999645e-01 5.288794046880023192e-01
7.149999999999999689e-01 5.308058500810829416e-01
7.199999999999999734e-01 5.326956905121466024e-01
7.249999999999999778e-01 5.346557299192866708e-01
7.299999999999999822e-01 5.366099228298264467e-01
7.349999999999999867e-01 5.385789989839974146e-01
7.399999999999999911e-01 5.405142501122833787e-01
7.449999999999999956e-01 5.424322671941100849e-01
7.500000000000000000e-01 5.443532264837736001e-01
7.550000000000000044e-01 5.462448479239379040e-01
7.600000000000000089e-01 5.481349097319232477e-01
7.650000000000000133e-01 5.500652931429156345e-01
7.700000000000000178e-01 5.519856591976896043e-01
7.750000000000000222e-01 5.539496706511510826e-01
7.800000000000000266e-01 5.559251374452579553e-01
7.850000000000000311e-01 5.579231509707084369e-01
7.900000000000000355e-01 5.599499132278097369e-01
7.950000000000000400e-01 5.619967364257899556e-01
8.000000000000000444e-01 5.640819962339943539e-01
8.050000000000000488e-01 5.661130809360297444e-01
8.100000000000000533e-01 5.681718705852729645e-01
8.150000000000000577e-01 5.702163631096818230e-01
8.200000000000000622e-01 5.722359300806617588e-01
8.250000000000000666e-01 5.742752066412121215e-01
8.300000000000000711e-01 5.763195300282981659e-01
8.349999999999999645e-01 5.784090039947311634e-01
8.399999999999999689e-01 5.805107459666570824e-01
8.449999999999999734e-01 5.825743341669100683e-01
8.499999999999999778e-01 5.847352667694661887e-01
8.549999999999999822e-01 5.868639128992356735e-01
8.599999999999999867e-01 5.890921622743652275e-01
8.649999999999999911e-01 5.912761604626430856e-01
8.699999999999999956e-01 5.935105110048565225e-01
8.750000000000000000e-01 5.957253332252104849e-01
8.800000000000000044e-01 5.979193298799910794e-01
8.850000000000000089e-01 6.000623150912962611e-01
8.900000000000000133e-01 6.021942178709277504e-01
8.950000000000000178e-01 6.043001689007782007e-01
9.000000000000000222e-01 6.063801347264512476e-01
9.050000000000000266e-01 6.084215007110833628e-01
9.100000000000000311e-01 6.104605737499293472e-01
9.150000000000000355e-01 6.124709155478618161e-01
9.200000000000000400e-01 6.145607299245490207e-01
9.250000000000000444e-01 6.166808252889967035e-01
9.300000000000000488e-01 6.188381051568813129e-01
9.350000000000000533e-01 6.209838593301129084e-01
9.400000000000000577e-01 6.231550782938997113e-01
9.450000000000000622e-01 6.253199746875635068e-01
9.500000000000000666e-01 6.275076412704848616e-01
9.550000000000000711e-01 6.296617414659316792e-01
9.599999999999999645e-01 6.317690081727568296e-01
9.649999999999999689e-01 6.339042252253778154e-01
9.699999999999999734e-01 6.359663117203668836e-01
9.749999999999999778e-01 6.379956745375909843e-01
9.799999999999999822e-01 6.400210944305626537e-01
9.849999999999999867e-01 6.420531360053567393e-01
9.899999999999999911e-01 6.440473848432073378e-01
9.949999999999999956e-01 6.461345552535845416e-01
1.000000000000000000e+00 6.481964716656197778e-01
1.005000000000000115e+00 6.502786812527829863e-01
1.010000000000000009e+00 6.524054209638554536e-01
1.015000000000000124e+00 6.545589487368534964e-01
1.020000000000000018e+00 6.567200096137908449e-01
1.024999999999999911e+00 6.588790377288001876e-01
1.030000000000000027e+00 6.610243649201412719e-01
1.034999999999999920e+00 6.632080532718465093e-01
1.040000000000000036e+00 6.654488806283078706e-01
1.044999999999999929e+00 6.676868373504674103e-01
1.050000000000000044e+00 6.699680799167767598e-01
1.054999999999999938e+00 6.722125215013857735e-01
1.060000000000000053e+00 6.745785113195396088e-01
1.064999999999999947e+00 6.769717138866698791e-01
1.070000000000000062e+00 6.794057703116017644e-01
1.074999999999999956e+00 6.817812041742749019e-01
1.080000000000000071e+00 6.841969540977526076e-01
1.084999999999999964e+00 6.865970439932509439e-01
1.090000000000000080e+00 6.889852272362495533e-01
1.094999999999999973e+00 6.913370538166232482e-01
1.100000000000000089e+00 6.937000747761528086e-01
1.104999999999999982e+00 6.960192512817148236e-01
1.110000000000000098e+00 6.983450498350325386e-01
1.114999999999999991e+00 7.006630279314646215e-01
1.120000000000000107e+00 7.029945774799107872e-01
1.125000000000000000e+00 7.053254715246648487e-01
1.130000000000000115e+00 7.076697991363258833e-01
1.135000000000000009e+00 7.100655332863846647e-01
1.140000000000000124e+00 7.124585361874695710e-01
1.145000000000000018e+00 7.148713014585552639e-01
1.150000000000000133e+00 7.173252846499845736e-01
1.155000000000000027e+00 7.197745666329370406e-01
1.159999999999999920e+00 7.222664975511519092e-01
1.165000000000000036e+00 7.247174663997342225e-01
1.169999999999999929e+00 7.271179084836394413e-01
1.175000000000000044e+00 7.294786318250350288e-01
1.179999999999999938e+00 7.318060776988266625e-01
1.185000000000000053e+00 7.340554415940342414e-01
1.189999999999999947e+00 7.363344155649370615e-01
1.195000000000000062e+00 7.385692850029607071e-01
1.199999999999999956e+00 7.407806610162455119e-01
1.205000000000000071e+00 7.430724430709541029e-01
1.209999999999999964e+00 7.453664465138485351e-01
1.215000000000000080e+00 7.477248440098709370e-01
1.219999999999999973e+00 7.501319453057259112e-01
1.225000000000000089e+00 7.525634221284592806e-01
1.229999999999999982e+00 7.550185153477816380e-01
1.235000000000000098e+00 7.574731934188277949e-01
1.239999999999999991e+00 7.599675455684049563e-01
1.245000000000000107e+00 7.624680360046648397e-01
1.250000000000000000e+00 7.648462854387139132e-01
1.255000000000000115e+00 7.672231014070823862e-01
1.260000000000000009e+00 7.696024011228819184e-01
1.265000000000000124e+00 7.720309391356188211e-01
1.270000000000000018e+00 7.744055976117454332e-01
1.275000000000000133e+00 7.767994063997973875e-01
1.280000000000000027e+00 7.791841125733994788e-01
1.284999999999999920e+00 7.815302577694114294e-01
1.290000000000000036e+00 7.839334882423424355e-01
1.294999999999999929e+00 7.863673685682082137e-01
1.300000000000000044e+00 7.888192237474143109e-01
1.304999999999999938e+00 7.911846701062881237e-01
1.310000000000000053e+00 7.936090781712978881e-01
1.314999999999999947e+00 7.960169621544900265e-01
1.320000000000000062e+00 7.984009096983886167e-01
1.324999999999999956e+00 8.007759367824039964e-01
1.330000000000000071e+00 8.032286036833776732e-01
1.334999999999999964e+00 8.056510787232438187e-01
1.340000000000000080e+00 8.081233492752779579e-01
1.344999999999999973e+00 8.106024064948326169e-01
1.350000000000000089e+00 8.131709771212272120e-01
1.354999999999999982e+00 8.157189618429828704e-01
1.360000000000000098e+00 8.182936445647850388e-01
1.364999999999999991e+00 8.208692438878969488e-01
1.370000000000000107e+00 8.233948432906109671e-01
1.375000000000000000e+00 8.259817584335261698e-01
1.380000000000000115e+00 8.285105374862834493e-01
1.385000000000000009e+00 8.309953889235301983e-01
1.390000000000000124e+00 8.335146728147982964e-01
1.395000000000000018e+00 8.360639205442018662e-01
1.400000000000000133e+00 8.386199429410668982e-01
1.405000000000000027e+00 8.412066621093838847e-01
1.409999999999999920e+00 8.438385764678294487e-01
1.415000000000000036e+00 8.464801125756834521e-01
1.419999999999999929e+00 8.491632930617054598e-01
1.425000000000000044e+00 8.518431396176868731e-01
1.429999999999999938e+00 8.545608706678111677e-01
1.435000000000000053e+00 8.572713202869243210e-01
1.439999999999999947e+00 8.600220237267388601e-01
1.445000000000000062e+00 8.627845550879734704e-01
1.449999999999999956e+00 8.655481170330079355e-01
1.455000000000000071e+00 8.683158129416964632e-01
1.459999999999999964e+00 8.710673124562393621e-01
1.465000000000000080e+00 8.738107007189207520e-01
1.469999999999999973e+00 8.765740432132653748e-01
1.475000000000000089e+00 8.792589198993469024e-01
1.479999999999999982e+00 8.819635145858792935e-01
1.485000000000000098e+00 8.846616734353656142e-01
1.489999999999999991e+00 8.873181735933037828e-01
1.495000000000000107e+00 8.899373048086399729e-01
1.500000000000000000e+00 8.925672258276451387e-01
1.505000000000000115e+00 8.951662370227054799e-01
1.510000000000000009e+00 8.977754503783179629e-01
1.515000000000000124e+00 9.004070287890976187e-01
1.520000000000000018e+00 9.030656765316138479e-01
1.525000000000000133e+00 9.057916576021186605e-01
1.530000000000000027e+00 9.084328159743138009e-01
1.535000000000000142e+00 9.112139594577092216e-01
1.540000000000000036e+00 9.140277195396574461e-01
1.544999999999999929e+00 9.168388230480224443e-01
1.550000000000000044e+00 9.196530887562472945e-01
1.554999999999999938e+00 9.224487174397130174e-01
1.560000000000000053e+00 9.252037126019099222e-01
1.564999999999999947e+00 9.279165615439880499e-01
1.570000000000000062e+00 9.305985758708446021e-01
1.574999999999999956e+00 9.332160442798534961e-01
1.580000000000000071e+00 9.358175376591313377e-01
1.584999999999999964e+00 9.383322836859201432e-01
1.590000000000000080e+00 9.408239080124385367e-01
1.594999999999999973e+00 9.433897025738466890e-01
1.600000000000000089e+00 9.459460797863306070e-01
1.604999999999999982e+00 9.485178471064238392e-01
1.610000000000000098e+00 9.511436420494654431e-01
1.614999999999999991e+00 9.537865287789832891e-01
1.620000000000000107e+00 9.564588997504798185e-01
1.625000000000000000e+00 9.591507331271564851e-01
1.630000000000000115e+00 9.617990509226860274e-01
1.635000000000000009e+00 9.644169753839193504e-01
1.640000000000000124e+00 9.670204472498297177e-01
1.645000000000000018e+00 9.696278953153650848e-01
1.650000000000000133e+00 9.721844603637650462e-01
1.655000000000000027e+00 9.747663724742635649e-01
1.660000000000000142e+00 9.773638400271270621e-01
1.665000000000000036e+00 9.799997187962995460e-01
1.669999999999999929e+00 9.826104714311754140e-01
1.675000000000000044e+00 9.852676317262510919e-01
1.679999999999999938e+00 9.879628874861094978e-01
1.685000000000000053e+00 9.906249673824856217e-01
1.689999999999999947e+00 9.933546618817845619e-01
1.695000000000000062e+00 9.960836982844174514e-01
1.699999999999999956e+00 9.988574400579048884e-01
1.705000000000000071e+00 1.001590111840661823e+00
1.709999999999999964e+00 1.004382756041347857e+00
1.715000000000000080e+00 1.007254595388662466e+00
1.719999999999999973e+00 1.010111486267938341e+00
1.725000000000000089e+00 1.013002864334943132e+00
1.729999999999999982e+00 1.015906952727085866e+00
1.735000000000000098e+00 1.018815272592724863e+00
1.739999999999999991e+00 1.021750130108652677e+00
1.745000000000000107e+00 1.024694846397137482e+00
1.750000000000000000e+00 1.027635839768425985e+00
1.755000000000000115e+00 1.030540454570100906e+00
1.760000000000000009e+00 1.033465028433564248e+00
1.765000000000000124e+00 1.036304879755099995e+00
1.770000000000000018e+00 1.039215106584275627e+00
1.775000000000000133e+00 1.042056982518322128e+00
1.780000000000000027e+00 1.044893670511305439e+00
1.785000000000000142e+00 1.047668102511123411e+00
1.790000000000000036e+00 1.050523253489429099e+00
1.794999999999999929e+00 1.053373407276868567e+00
1.800000000000000044e+00 1.056273236313059360e+00
1.804999999999999938e+00 1.059216582669622264e+00
1.810000000000000053e+00 1.062202750166590270e+00
1.814999999999999947e+00 1.065204837502423896e+00
1.820000000000000062e+00 1.068206425835941609e+00
1.824999999999999956e+00 1.071280629989042943e+00
1.830000000000000071e+00 1.074352318946420581e+00
1.834999999999999964e+00 1.077445114403187132e+00
1.840000000000000080e+00 1.080443566688227275e+00
1.844999999999999973e+00 1.083518939311492124e+00
1.850000000000000089e+00 1.086597778297573536e+00
1.854999999999999982e+00 1.089587488158924922e+00
1.860000000000000098e+00 1.092660236688992592e+00
1.864999999999999991e+00 1.095698229942635660e+00
1.870000000000000107e+00 1.098760024139057156e+00
1.875000000000000000e+00 1.101803744210458680e+00
1.880000000000000115e+00 1.104871722105243315e+00
1.885000000000000009e+00 1.107952234196315278e+00
1.890000000000000124e+00 1.110997244450766974e+00
1.895000000000000018e+00 1.114065918741981021e+00
1.900000000000000133e+00 1.117126792227474130e+00
1.905000000000000027e+00 1.120182805336333853e+00
1.910000000000000142e+00 1.123257610281272134e+00
1.915000000000000036e+00 1.126324966004721428e+00
1.919999999999999929e+00 1.129343374449447879e+00
1.925000000000000044e+00 1.132421063986790655e+00
1.929999999999999938e+00 1.135476910153939478e+00
1.935000000000000053e+00 1.138545609775044598e+00
1.939999999999999947e+00 1.141585392207471905e+00
1.945000000000000062e+00 1.144653931651840040e+00
1.949999999999999956e+00 1.147706812826237321e+00
1.955000000000000071e+00 1.150787610700976238e+00
1.959999999999999964e+00 1.153879922680716597e+00
1.965000000000000080e+00 1.156923514138942233e+00
1.969999999999999973e+00 1.160000875736796111e+00
1.975000000000000089e+00 1.163070159993130348e+00
1.979999999999999982e+00 1.166102909440512869e+00
1.985000000000000098e+00 1.169113623582095363e+00
1.989999999999999991e+00 1.172053554671129927e+00
