# time (ps)	msd (A2)
0.000000000000000000e+00 2.834250348942106469e-05
5.000000000000000104e-03 2.671351245541063370e-03
1.000000000000000021e-02 1.022661096911975202e-02
1.499999999999999944e-02 2.171669480281818165e-02
2.000000000000000042e-02 3.570776117698692270e-02
2.500000000000000139e-02 5.066454135752698068e-02
2.999999999999999889e-02 6.532045338224368169e-02
3.500000000000000333e-02 7.859034857577913702e-02
4.000000000000000083e-02 8.996546357526756521e-02
4.499999999999999833e-02 9.930567957186024752e-02
5.000000000000000278e-02 1.068581049301972619e-01
5.500000000000000028e-02 1.131107705652348860e-01
5.999999999999999778e-02 1.186296409362478377e-01
6.500000000000000222e-02 1.240440084025532380e-01
7.000000000000000666e-02 1.298561513596160066e-01
7.499999999999999722e-02 1.364040096711879591e-01
8.000000000000000167e-02 1.438994561765315483e-01
8.500000000000000611e-02 1.522953045859122834e-01
8.999999999999999667e-02 1.614347831489755247e-01
9.500000000000000111e-02 1.710058945862431568e-01
1.000000000000000056e-01 1.806239947472795260e-01
1.049999999999999961e-01 1.899651415327309467e-01
1.100000000000000006e-01 1.986653099107957010e-01
1.150000000000000050e-01 2.065377211414009817e-01
1.199999999999999956e-01 2.134816293729394909e-01
1.250000000000000000e-01 2.194910302422014015e-01
1.300000000000000044e-01 2.246538927291315269e-01
1.350000000000000089e-01 2.291884284147842343e-01
1.400000000000000133e-01 2.333026487732999532e-01
1.449999999999999900e-01 2.371839675951221971e-01
1.499999999999999944e-01 2.410234178906997260e-01
1.549999999999999989e-01 2.449525580256692037e-01
1.600000000000000033e-01 2.490191298331710656e-01
1.650000000000000078e-01 2.532208406651926813e-01
1.700000000000000122e-01 2.575053141313471405e-01
1.750000000000000167e-01 2.617720201776891908e-01
1.799999999999999933e-01 2.659353254607417782e-01
1.849999999999999978e-01 2.699165439265487354e-01
1.900000000000000022e-01 2.736697853869573538e-01
1.950000000000000067e-01 2.771960337441067845e-01
2.000000000000000111e-01 2.804775868692676033e-01
2.050000000000000155e-01 2.835774132544971460e-01
2.099999999999999922e-01 2.865807763285418974e-01
2.149999999999999967e-01 2.895303556197636463e-01
2.200000000000000011e-01 2.925187539970869888e-01
2.250000000000000056e-01 2.955667036941981851e-01
2.300000000000000100e-01 2.986837602273901271e-01
2.350000000000000144e-01 3.018925760839734074e-01
2.399999999999999911e-01 3.051656066549582325e-01
2.449999999999999956e-01 3.084507944780788824e-01
2.500000000000000000e-01 3.117244099335090279e-01
2.550000000000000044e-01 3.149492427188283483e-01
2.600000000000000089e-01 3.180783873315946031e-01
2.650000000000000133e-01 3.211219583064292005e-01
2.700000000000000178e-01 3.240495905012762412e-01
2.750000000000000222e-01 3.268926913926797906e-01
2.800000000000000266e-01 3.296727464075471237e-01
2.850000000000000311e-01 3.324098584018690961e-01
2.899999999999999800e-01 3.351321767917143646e-01
2.949999999999999845e-01 3.378835140231052914e-01
2.999999999999999889e-01 3.406446793791477745e-01
3.049999999999999933e-01 3.434544299938402934e-01
3.099999999999999978e-01 3.463071524347689500e-01
3.150000000000000022e-01 3.491742625127319255e-01
3.200000000000000067e-01 3.520657509735324875e-01
3.250000000000000111e-01 3.549697216710686054e-01
3.300000000000000155e-01 3.578322805454596245e-01
3.350000000000000200e-01 3.606766054184558090e-01
3.400000000000000244e-01 3.634614290355819288e-01
3.450000000000000289e-01 3.662039090223223603e-01
3.500000000000000333e-01 3.688668217488013101e-01
3.549999999999999822e-01 3.714658388981904591e-01
3.599999999999999867e-01 3.740016601148326569e-01
3.649999999999999911e-01 3.764722655260341888e-01
3.699999999999999956e-01 3.788946955693954788e-01
3.750000000000000000e-01 3.812437409558434021e-01
3.800000000000000044e-01 3.835492738539262869e-01
3.850000000000000089e-01 3.858332093943858676e-01
3.900000000000000133e-01 3.880762941775364183e-01
3.950000000000000178e-01 3.902924731880701437e-01
4.000000000000000222e-01 3.924857506802122420e-01
4.050000000000000266e-01 3.946704022848949722e-01
4.100000000000000311e-01 3.968484372937122195e-01
4.150000000000000355e-01 3.990149329244532805e-01
4.199999999999999845e-01 4.011668126179705474e-01
4.249999999999999889e-01 4.033165087325829012e-01
4.299999999999999933e-01 4.054477541146904174e-01
4.349999999999999978e-01 4.075516923812402825e-01
4.400000000000000022e-01 4.096453555094930477e-01
4.450000000000000067e-01 4.116940838757761623e-01
4.500000000000000111e-01 4.137349729304984902e-01
4.550000000000000155e-01 4.157682886904845998e-01
4.600000000000000200e-01 4.177835606275135394e-01
4.650000000000000244e-01 4.198261568623277706e-01
4.700000000000000289e-01 4.218909729991573987e-01
4.750000000000000333e-01 4.239874150393873609e-01
4.799999999999999822e-01 4.260899293608774729e-01
4.849999999999999867e-01 4.282445590568015326e-01
4.899999999999999911e-01 4.304040414329947661e-01
4.949999999999999956e-01 4.325671257166187611e-01
5.000000000000000000e-01 4.347368911498631916e-01
5.050000000000000044e-01 4.368954700700940497e-01
5.100000000000000089e-01 4.390608309163848144e-01
5.150000000000000133e-01 4.411968452405755081e-01
5.200000000000000178e-01 4.433567070676892041e-01
5.250000000000000222e-01 4.454888564475310564e-01
5.300000000000000266e-01 4.476234800867706087e-01
5.350000000000000311e-01 4.497706350977113687e-01
5.400000000000000355e-01 4.519462467604295486e-01
5.450000000000000400e-01 4.541168355550365132e-01
5.500000000000000444e-01 4.562953849758630831e-01
5.550000000000000488e-01 4.584841704911588045e-01
5.600000000000000533e-01 4.606466420733685285e-01
5.650000000000000577e-01 4.628054854468862112e-01
5.700000000000000622e-01 4.649321135354985146e-01
5.750000000000000666e-01 4.670444198451952356e-01
5.799999999999999600e-01 4.691020394462633303e-01
5.849999999999999645e-01 4.711468214640368024e-01
5.899999999999999689e-01 4.731654971820729583e-01
5.949999999999999734e-01 4.751750970552006126e-01
5.999999999999999778e-01 4.771765958909281458e-01
6.049999999999999822e-01 4.791977486710802814e-01
6.099999999999999867e-01 4.812218781527188294e-01
6.149999999999999911e-01 4.832577406023986222e-01
6.199999999999999956e-01 4.853152103171519127e-01
6.250000000000000000e-01 4.873798130895164449e-01
6.300000000000000044e-01 4.894422000769920178e-01
6.350000000000000089e-01 4.915161520125079786e-01
6.400000000000000133e-01 4.935645719879876991e-01
6.450000000000000178e-01 4.956132981895451928e-01
6.500000000000000222e-01 4.976235337696154892e-01
6.550000000000000266e-01 4.996178413390847672e-01
6.600000000000000311e-01 5.016009304864582630e-01
6.650000000000000355e-01 5.035629395182382728e-01
6.700000000000000400e-01 5.055009787421130829e-01
6.750000000000000444e-01 5.074439233981382635e-01
6.800000000000000488e-01 5.094130613870984092e-01
6.850000000000000533e-01 5.113845425385822319e-01
6.900000000000000577e-01 5.133814872860481548e-01
6.950000000000000622e-01 5.153880406467499231e-01
7.000000000000000666e-01 5.174077671644486953e-01
7.049999999999999600e-01 5.194330034185005163e-01
7.099999999999999645e-01 5.214613373494443316e-01
7.149999999999999689e-01 5.234638220873301107e-01
7.199999999999999734e-01 5.254570564462640592e-01
7.249999999999999778e-01 5.274357344674892589e-01
7.299999999999999822e-01 5.293822338802453009e-01
7.349999999999999867e-01 5.313309379226475171e-01
7.399999999999999911e-01 5.332812449943776789e-01
7.449999999999999956e-01 5.352377521668928440e-01
7.500000000000000000e-01 5.371944496782494749e-01
7.550000000000000044e-01 5.391940043199288102e-01
7.600000000000000089e-01 5.411935583204844358e-01
7.650000000000000133e-01 5.432234000794260442e-01
7.700000000000000178e-01 5.452588434647974713e-01
7.750000000000000222e-01 5.473153178249926532e-01
7.800000000000000266e-01 5.493454743243496585e-01
7.850000000000000311e-01 5.513527812713345799e-01
7.900000000000000355e-01 5.533676077246497682e-01
7.950000000000000400e-01 5.553378216465324480e-01
8.000000000000000444e-01 5.573170351649926468e-01
8.050000000000000488e-01 5.592793621419310801e-01
8.100000000000000533e-01 5.612548436739084323e-01
8.150000000000000577e-01 5.632509816700418392e-01
8.200000000000000622e-01 5.652721538151229685e-01
8.250000000000000666e-01 5.673256334857724736e-01
8.300000000000000711e-01 5.694146215709953163e-01
8.349999999999999645e-01 5.715039920686140196e-01
8.399999999999999689e-01 5.736181641539365161e-01
8.449999999999999734e-01 5.757232058152155219e-01
8.499999999999999778e-01 5.778437493357130306e-01
8.549999999999999822e-01 5.799109005121720894e-01
8.599999999999999867e-01 5.819620407166111731e-01
8.649999999999999911e-01 5.839994697780905852e-01
8.699999999999999956e-01 5.860377641836937990e-01
8.750000000000000000e-01 5.880764245601507456e-01
8.800000000000000044e-01 5.901338962362535634e-01
8.850000000000000089e-01 5.922092695578182742e-01
8.900000000000000133e-01 5.943379847268436267e-01
8.950000000000000178e-01 5.964621752921602793e-01
9.000000000000000222e-01 5.986466452232169777e-01
9.050000000000000266e-01 6.008623320946551161e-01
9.100000000000000311e-01 6.030963846383553539e-01
9.150000000000000355e-01 6.053442881934163466e-01
9.200000000000000400e-01 6.075436165406503664e-01
9.250000000000000444e-01 6.097299554052046933e-01
9.300000000000000488e-01 6.118757571037686249e-01
9.350000000000000533e-01 6.139698471657102363e-01
9.400000000000000577e-01 6.160241505311289112e-01
9.450000000000000622e-01 6.180077971865044484e-01
9.500000000000000666e-01 6.199910589749924039e-01
9.550000000000000711e-01 6.219529559987629908e-01
9.599999999999999645e-01 6.239114153184545097e-01
9.649999999999999689e-01 6.259022776178381209e-01
9.699999999999999734e-01 6.279247028566780076e-01
9.749999999999999778e-01 6.299766245922392427e-01
9.799999999999999822e-01 6.320800866964711995e-01
9.849999999999999867e-01 6.342350899639443984e-01
9.899999999999999911e-01 6.363975240993354765e-01
9.949999999999999956e-01 6.385893444118070361e-01
1.000000000000000000e+00 6.407683361001231814e-01
1.005000000000000115e+00 6.429655138603829201e-01
1.010000000000000009e+00 6.451365228466287016e-01
1.015000000000000124e+00 6.472769242727797190e-01
1.020000000000000018e+00 6.494231501755383107e-01
1.024999999999999911e+00 6.515315833647308263e-01
1.030000000000000027e+00 6.536425473665935515e-01
1.034999999999999920e+00 6.557607528946937103e-01
1.040000000000000036e+00 6.578840613402335835e-01
1.044999999999999929e+00 6.600240447636004371e-01
1.050000000000000044e+00 6.621848008002765296e-01
1.054999999999999938e+00 6.643898283772504687e-01
1.060000000000000053e+00 6.666190900113481144e-01
1.064999999999999947e+00 6.688887604679992771e-01
1.070000000000000062e+00 6.711732782905747152e-01
1.074999999999999956e+00 6.734963455695476275e-01
1.080000000000000071e+00 6.758216657791416004e-01
1.084999999999999964e+00 6.781732486126835768e-01
1.090000000000000080e+00 6.804802616678364835e-01
1.094999999999999973e+00 6.828433531413798940e-01
1.100000000000000089e+00 6.851801232722362078e-01
1.104999999999999982e+00 6.875094431938771899e-01
1.110000000000000098e+00 6.898313522236884099e-01
1.114999999999999991e+00 6.921768723729314621e-01
1.120000000000000107e+00 6.945310307194860755e-01
1.125000000000000000e+00 6.968877981535106514e-01
1.130000000000000115e+00 6.992887426746996482e-01
1.135000000000000009e+00 7.016967004499834459e-01
1.140000000000000124e+00 7.041331195553626188e-01
1.145000000000000018e+00 7.065880225904203060e-01
1.150000000000000133e+00 7.090484634941089936e-01
1.155000000000000027e+00 7.115025681047114636e-01
1.159999999999999920e+00 7.139593320271447885e-01
1.165000000000000036e+00 7.164122012789059246e-01
1.169999999999999929e+00 7.188319646009485586e-01
1.175000000000000044e+00 7.212403722359518321e-01
1.179999999999999938e+00 7.236150497414474136e-01
1.185000000000000053e+00 7.259868300513755424e-01
1.189999999999999947e+00 7.283243205751542826e-01
1.195000000000000062e+00 7.306611849106570133e-01
1.199999999999999956e+00 7.329911385151249847e-01
1.205000000000000071e+00 7.353392835830190322e-01
1.209999999999999964e+00 7.377097516074857531e-01
1.215000000000000080e+00 7.401015752926998204e-01
1.219999999999999973e+00 7.425034677309293452e-01
1.225000000000000089e+00 7.449249876927320768e-01
1.229999999999999982e+00 7.473565954776152376e-01
1.235000000000000098e+00 7.498045371985639918e-01
1.239999999999999991e+00 7.522489871262418859e-01
1.245000000000000107e+00 7.547114493169972960e-01
1.250000000000000000e+00 7.571650137665804081e-01
1.255000000000000115e+00 7.596211913212375100e-01
1.260000000000000009e+00 7.620607444842164568e-01
1.265000000000000124e+00 7.645358732461321472e-01
1.270000000000000018e+00 7.669727543913706924e-01
1.275000000000000133e+00 7.694161457223516187e-01
1.280000000000000027e+00 7.718840956838682876e-01
1.284999999999999920e+00 7.743403251536040699e-01
1.290000000000000036e+00 7.767854416783593896e-01
1.294999999999999929e+00 7.792414984204926176e-01
1.300000000000000044e+00 7.817125102337439957e-01
1.304999999999999938e+00 7.841816344273825345e-01
1.310000000000000053e+00 7.866471147932432295e-01
1.314999999999999947e+00 7.890963641308673671e-01
1.320000000000000062e+00 7.915532332141176353e-01
1.324999999999999956e+00 7.940019493432592945e-01
1.330000000000000071e+00 7.964490774304833209e-01
1.334999999999999964e+00 7.988981273602336897e-01
1.340000000000000080e+00 8.013484902690319878e-01
1.344999999999999973e+00 8.038042248388620470e-01
1.350000000000000089e+00 8.062600280366390981e-01
1.354999999999999982e+00 8.087090698325538618e-01
1.360000000000000098e+00 8.111865652368627222e-01
1.364999999999999991e+00 8.136563407067205489e-01
1.370000000000000107e+00 8.161458792328661893e-01
1.375000000000000000e+00 8.186634753983096369e-01
1.380000000000000115e+00 8.212071089289475490e-01
1.385000000000000009e+00 8.237917530848376524e-01
1.390000000000000124e+00 8.263948421469901051e-01
1.395000000000000018e+00 8.290308489069678766e-01
1.400000000000000133e+00 8.317073741322884572e-01
1.405000000000000027e+00 8.343690059972564965e-01
1.409999999999999920e+00 8.370620876032517366e-01
1.415000000000000036e+00 8.397593133719368774e-01
1.419999999999999929e+00 8.424376072639975233e-01
1.425000000000000044e+00 8.451242458939706159e-01
1.429999999999999938e+00 8.477975193164725143e-01
1.435000000000000053e+00 8.504493858272196283e-01
1.439999999999999947e+00 8.531167755523325624e-01
1.445000000000000062e+00 8.557958943220834724e-01
1.449999999999999956e+00 8.584666986800747468e-01
1.455000000000000071e+00 8.611391494921386558e-01
1.459999999999999964e+00 8.638398796389649137e-01
1.465000000000000080e+00 8.665586211044344900e-01
1.469999999999999973e+00 8.693007038823056254e-01
1.475000000000000089e+00 8.720351030615994814e-01
1.479999999999999982e+00 8.748070316469488406e-01
1.485000000000000098e+00 8.776048191299919976e-01
1.489999999999999991e+00 8.803967253347039223e-01
1.495000000000000107e+00 8.832040084927029744e-01
1.500000000000000000e+00 8.860144096792591517e-01
1.505000000000000115e+00 8.888036361870241819e-01
1.510000000000000009e+00 8.916042502221870336e-01
1.515000000000000124e+00 8.943767175789892887e-01
1.520000000000000018e+00 8.971455120236525582e-01
1.525000000000000133e+00 8.999073054425857920e-01
1.530000000000000027e+00 9.026439564593977671e-01
1.535000000000000142e+00 9.053924907896874208e-01
1.540000000000000036e+00 9.080983211248710996e-01
1.544999999999999929e+00 9.108375061059897915e-01
1.550000000000000044e+00 9.135903431169219990e-01
1.554999999999999938e+00 9.163446275279673037e-01
1.560000000000000053e+00 9.191140484258139010e-01
1.564999999999999947e+00 9.219107132984118991e-01
1.570000000000000062e+00 9.247227950484849801e-01
1.574999999999999956e+00 9.275414560173246281e-01
1.580000000000000071e+00 9.304000325916712555e-01
1.584999999999999964e+00 9.332508882414577434e-01
1.590000000000000080e+00 9.361214038638587809e-01
1.594999999999999973e+00 9.389880915626487301e-01
1.600000000000000089e+00 9.418417137830203956e-01
1.604999999999999982e+00 9.447106562693626808e-01
1.610000000000000098e+00 9.475618363536062461e-01
1.614999999999999991e+00 9.504110429401562143e-01
1.620000000000000107e+00 9.532696066920367528e-01
1.625000000000000000e+00 9.561234615510456614e-01
1.630000000000000115e+00 9.589872623995160383e-01
1.635000000000000009e+00 9.618348436803380030e-01
1.640000000000000124e+00 9.646940315329829430e-01
1.645000000000000018e+00 9.675460396050136191e-01
1.650000000000000133e+00 9.703859626095500124e-01
1.655000000000000027e+00 9.732299415193029768e-01
1.660000000000000142e+00 9.760770487427697928e-01
1.665000000000000036e+00 9.789226241658665062e-01
1.669999999999999929e+00 9.817797900409160894e-01
1.675000000000000044e+00 9.846704658242485531e-01
1.679999999999999938e+00 9.875725084458805147e-01
1.685000000000000053e+00 9.905050060011254542e-01
1.689999999999999947e+00 9.934583636322183997e-01
1.695000000000000062e+00 9.964438769316736888e-01
1.699999999999999956e+00 9.994465100521918721e-01
1.705000000000000071e+00 1.002461668583973120e+00
1.709999999999999964e+00 1.005518156600265556e+00
1.715000000000000080e+00 1.008588976387883918e+00
1.719999999999999973e+00 1.011635141911407354e+00
1.725000000000000089e+00 1.014691461732197819e+00
1.729999999999999982e+00 1.017717535725153777e+00
1.735000000000000098e+00 1.020759600986713034e+00
1.739999999999999991e+00 1.023785769589793615e+00
1.745000000000000107e+00 1.026808950827232003e+00
1.750000000000000000e+00 1.029813407271879422e+00
1.755000000000000115e+00 1.032828643438532756e+00
1.760000000000000009e+00 1.035865149305978283e+00
1.765000000000000124e+00 1.038896575845308812e+00
1.770000000000000018e+00 1.041934125960803703e+00
1.775000000000000133e+00 1.044968325699630274e+00
1.780000000000000027e+00 1.047985264308519682e+00
1.785000000000000142e+00 1.051003420348496809e+00
1.790000000000000036e+00 1.054004293643640011e+00
1.794999999999999929e+00 1.056992009965645352e+00
1.800000000000000044e+00 1.059955159227268462e+00
1.804999999999999938e+00 1.062920720184265200e+00
1.810000000000000053e+00 1.065883515378448054e+00
1.814999999999999947e+00 1.068854417801233803e+00
1.820000000000000062e+00 1.071828964561692743e+00
1.824999999999999956e+00 1.074831449886486823e+00
1.830000000000000071e+00 1.077841775383863610e+00
1.834999999999999964e+00 1.080858939925758655e+00
1.840000000000000080e+00 1.083906863507083873e+00
1.844999999999999973e+00 1.086937324807500493e+00
1.850000000000000089e+00 1.089985208425849672e+00
1.854999999999999982e+00 1.093004871096928232e+00
1.860000000000000098e+00 1.096035127427675393e+00
1.864999999999999991e+00 1.099056499026243028e+00
1.870000000000000107e+00 1.102084072050262931e+00
1.875000000000000000e+00 1.105103645058371109e+00
1.880000000000000115e+00 1.108154867221310624e+00
1.885000000000000009e+00 1.111256242905523939e+00
1.890000000000000124e+00 1.114372488625251068e+00
1.895000000000000018e+00 1.117530666782591275e+00
1.900000000000000133e+00 1.120696232109092305e+00
1.905000000000000027e+00 1.123914207848996982e+00
1.910000000000000142e+00 1.127132775619915428e+00
1.915000000000000036e+00 1.130362297916313929e+00
1.919999999999999929e+00 1.133570194007638143e+00
1.925000000000000044e+00 1.136785027519490177e+00
1.929999999999999938e+00 1.139959723140018477e+00
1.935000000000000053e+00 1.143086993229233128e+00
1.939999999999999947e+00 1.146217556717248121e+00
1.945000000000000062e+00 1.149306686657382004e+00
1.949999999999999956e+00 1.152359245882191408e+00
1.955000000000000071e+00 1.155421089045976402e+00
1.959999999999999964e+00 1.158488539525040162e+00
1.965000000000000080e+00 1.161567819919966826e+00
1.969999999999999973e+00 1.164664150229007378e+00
1.975000000000000089e+00 1.167784525776250026e+00
1.979999999999999982e+00 1.170921953837118057e+00
1.985000000000000098e+00 1.174068567942902375e+00
1.989999999999999991e+00 1.177207592083459042e+00
