# time (ps)	msd (A2)
0.000000000000000000e+00 -4.185834925587685190e-07
5.000000000000000104e-03 2.666920261020201688e-03
1.000000000000000021e-02 1.023511624086467266e-02
1.499999999999999944e-02 2.172258068005562814e-02
2.000000000000000042e-02 3.572755947748800648e-02
2.500000000000000139e-02 5.073257297872026811e-02
2.999999999999999889e-02 6.538982172703584894e-02
3.500000000000000333e-02 7.870113449812904394e-02
4.000000000000000083e-02 9.008637622029518066e-02
4.499999999999999833e-02 9.945058265814488152e-02
5.000000000000000278e-02 1.070546290988958621e-01
5.500000000000000028e-02 1.133157963540117885e-01
5.999999999999999778e-02 1.188773401601238983e-01
6.500000000000000222e-02 1.243217553606810744e-01
7.000000000000000666e-02 1.301028473501199267e-01
7.499999999999999722e-02 1.365840677164555650e-01
8.000000000000000167e-02 1.438962337597869956e-01
8.500000000000000611e-02 1.519966329982261888e-01
8.999999999999999667e-02 1.607315193243846752e-01
9.500000000000000111e-02 1.698171929117792411e-01
1.000000000000000056e-01 1.788561674747723984e-01
1.049999999999999961e-01 1.875996863727183717e-01
1.100000000000000006e-01 1.957014513135720835e-01
1.150000000000000050e-01 2.030468685309020638e-01
1.199999999999999956e-01 2.095450121373083341e-01
1.250000000000000000e-01 2.152330608076957752e-01
1.300000000000000044e-01 2.202340608855227755e-01
1.350000000000000089e-01 2.247178952295170451e-01
1.400000000000000133e-01 2.288870464049796993e-01
1.449999999999999900e-01 2.328984435914001339e-01
1.499999999999999944e-01 2.369146645597212386e-01
1.549999999999999989e-01 2.410075066923494658e-01
1.600000000000000033e-01 2.452297973458616720e-01
1.650000000000000078e-01 2.495449065522409582e-01
1.700000000000000122e-01 2.539186171660650637e-01
1.750000000000000167e-01 2.582116401271266071e-01
1.799999999999999933e-01 2.624152413579766141e-01
1.849999999999999978e-01 2.664362709947155072e-01
1.900000000000000022e-01 2.702126620957758241e-01
1.950000000000000067e-01 2.738074836682679591e-01
2.000000000000000111e-01 2.771463833962873324e-01
2.050000000000000155e-01 2.803445456864633312e-01
2.099999999999999922e-01 2.834260599368236266e-01
2.149999999999999967e-01 2.864794095141493524e-01
2.200000000000000011e-01 2.895175012109887924e-01
2.250000000000000056e-01 2.925997084856845620e-01
2.300000000000000100e-01 2.957319984769442023e-01
2.350000000000000144e-01 2.989002172559250825e-01
2.399999999999999911e-01 3.021404992626584574e-01
2.449999999999999956e-01 3.053690234708053564e-01
2.500000000000000000e-01 3.085763551385604653e-01
2.550000000000000044e-01 3.117598396684634898e-01
2.600000000000000089e-01 3.148916187600923622e-01
2.650000000000000133e-01 3.179444093687578410e-01
2.700000000000000178e-01 3.208846066501131467e-01
2.750000000000000222e-01 3.237523522115300922e-01
2.800000000000000266e-01 3.265532842711343919e-01
2.850000000000000311e-01 3.293233329255146336e-01
2.899999999999999800e-01 3.320638195784431645e-01
2.949999999999999845e-01 3.348378232840982238e-01
2.999999999999999889e-01 3.375831999617773249e-01
3.049999999999999933e-01 3.403740819447654276e-01
3.099999999999999978e-01 3.432002263010132115e-01
3.150000000000000022e-01 3.460348731495037633e-01
3.200000000000000067e-01 3.488652161801604756e-01
3.250000000000000111e-01 3.516798689451987037e-01
3.300000000000000155e-01 3.544527997457039281e-01
3.350000000000000200e-01 3.572045496641313433e-01
3.400000000000000244e-01 3.598654941625865078e-01
3.450000000000000289e-01 3.624745790766293330e-01
3.500000000000000333e-01 3.650039242999505440e-01
3.549999999999999822e-01 3.674538814845552115e-01
3.599999999999999867e-01 3.698490064399077570e-01
3.649999999999999911e-01 3.721387527982020216e-01
3.699999999999999956e-01 3.744258625211031588e-01
3.750000000000000000e-01 3.766541239587179457e-01
3.800000000000000044e-01 3.788188129049315234e-01
3.850000000000000089e-01 3.810047887143921397e-01
3.900000000000000133e-01 3.831416035918991381e-01
3.950000000000000178e-01 3.852800080270976646e-01
4.000000000000000222e-01 3.874346864736850082e-01
4.050000000000000266e-01 3.895462656461308737e-01
4.100000000000000311e-01 3.916612658577456330e-01
4.150000000000000355e-01 3.937398276570868716e-01
4.199999999999999845e-01 3.958425441639745190e-01
4.249999999999999889e-01 3.978919762996140363e-01
4.299999999999999933e-01 3.998827340789214979e-01
4.349999999999999978e-01 4.018538535791416622e-01
4.400000000000000022e-01 4.037912022642056731e-01
4.450000000000000067e-01 4.057080632777543272e-01
4.500000000000000111e-01 4.075766268857112795e-01
4.550000000000000155e-01 4.094195143494339661e-01
4.600000000000000200e-01 4.112408953584387739e-01
4.650000000000000244e-01 4.130845976632523953e-01
4.700000000000000289e-01 4.149614682863266846e-01
4.750000000000000333e-01 4.168350188580946525e-01
4.799999999999999822e-01 4.187150616454080598e-01
4.849999999999999867e-01 4.205912786984665197e-01
4.899999999999999911e-01 4.225091616394899829e-01
4.949999999999999956e-01 4.244359680477226004e-01
5.000000000000000000e-01 4.263444851869337415e-01
5.050000000000000044e-01 4.282565945806223184e-01
5.100000000000000089e-01 4.301372797222782762e-01
5.150000000000000133e-01 4.320012258985557740e-01
5.200000000000000178e-01 4.339014340242522416e-01
5.250000000000000222e-01 4.358158138306706397e-01
5.300000000000000266e-01 4.377359934836821398e-01
5.350000000000000311e-01 4.396665118932679417e-01
5.400000000000000355e-01 4.416761690340931801e-01
5.450000000000000400e-01 4.436923289250489510e-01
5.500000000000000444e-01 4.457421610855461513e-01
5.550000000000000488e-01 4.477985495144488071e-01
5.600000000000000533e-01 4.498478666984022656e-01
5.650000000000000577e-01 4.518993593485394200e-01
5.700000000000000622e-01 4.539764666686374461e-01
5.750000000000000666e-01 4.560033150455578554e-01
5.799999999999999600e-01 4.580407236739465482e-01
5.849999999999999645e-01 4.600353641082186584e-01
5.899999999999999689e-01 4.620135683830009499e-01
5.949999999999999734e-01 4.639736696449750508e-01
5.999999999999999778e-01 4.659783972054095114e-01
6.049999999999999822e-01 4.679335586536363389e-01
6.099999999999999867e-01 4.698990832626716574e-01
6.149999999999999911e-01 4.718878527584942639e-01
6.199999999999999956e-01 4.738767199436839661e-01
6.250000000000000000e-01 4.758744365138229959e-01
6.300000000000000044e-01 4.778593632265906166e-01
6.350000000000000089e-01 4.798859385715012471e-01
6.400000000000000133e-01 4.818898095033396500e-01
6.450000000000000178e-01 4.838640742175688292e-01
6.500000000000000222e-01 4.858002832631869716e-01
6.550000000000000266e-01 4.877139928307615002e-01
6.600000000000000311e-01 4.895777258865375292e-01
6.650000000000000355e-01 4.914239571516536564e-01
6.700000000000000400e-01 4.932447331980854277e-01
6.750000000000000444e-01 4.950672497226278335e-01
6.800000000000000488e-01 4.969079884332409658e-01
6.850000000000000533e-01 4.987578081563359689e-01
6.900000000000000577e-01 5.006478534952893966e-01
6.950000000000000622e-01 5.025737867123146740e-01
7.000000000000000666e-01 5.045074881247531007e-01
7.049999999999999600e-01 5.064869584409569248e-01
7.099999999999999645e-01 5.084501808392364319e-01
7.149999999999999689e-01 5.104148323688164623e-01
7.199999999999999734e-01 5.123306495518171744e-01
7.249999999999999778e-01 5.142947405729435539e-01
7.299999999999999822e-01 5.161957217872389370e-01
7.349999999999999867e-01 5.180843396429143377e-01
7.399999999999999911e-01 5.199699300707528726e-01
7.449999999999999956e-01 5.218382469495188580e-01
7.500000000000000000e-01 5.236985535500029432e-01
7.550000000000000044e-01 5.255859981674659842e-01
7.600000000000000089e-01 5.274916981176160924e-01
7.650000000000000133e-01 5.293898565499406406e-01
7.700000000000000178e-01 5.313082406971862959e-01
7.750000000000000222e-01 5.332090934171430652e-01
7.800000000000000266e-01 5.350860078042204426e-01
7.850000000000000311e-01 5.369670957355323626e-01
7.900000000000000355e-01 5.388412416290634388e-01
7.950000000000000400e-01 5.407150237953453065e-01
8.000000000000000444e-01 5.425456474544599894e-01
8.050000000000000488e-01 5.443941135439115397e-01
8.100000000000000533e-01 5.462223078959983491e-01
8.150000000000000577e-01 5.480754981261880543e-01
8.200000000000000622e-01 5.499547337892325416e-01
8.250000000000000666e-01 5.518765233065018316e-01
8.300000000000000711e-01 5.538130977869798466e-01
8.349999999999999645e-01 5.558041960339513698e-01
8.399999999999999689e-01 5.578195262614297212e-01
8.449999999999999734e-01 5.598561657844299821e-01
8.499999999999999778e-01 5.618850590042442361e-01
8.549999999999999822e-01 5.639190351494992592e-01
8.599999999999999867e-01 5.659444242322342333e-01
8.649999999999999911e-01 5.679554471516364833e-01
8.699999999999999956e-01 5.699633867388126385e-01
8.750000000000000000e-01 5.719742696100887924e-01
8.800000000000000044e-01 5.739392153028679555e-01
8.850000000000000089e-01 5.759170102832090743e-01
8.900000000000000133e-01 5.779227713688998014e-01
8.950000000000000178e-01 5.799039012100873913e-01
9.000000000000000222e-01 5.819183191902664865e-01
9.050000000000000266e-01 5.839150176002697590e-01
9.100000000000000311e-01 5.859277202756251191e-01
9.150000000000000355e-01 5.879741209090146858e-01
9.200000000000000400e-01 5.899723531261027443e-01
9.250000000000000444e-01 5.919869393159445936e-01
9.300000000000000488e-01 5.939654946629324694e-01
9.350000000000000533e-01 5.959504673985168699e-01
9.400000000000000577e-01 5.978981264483320679e-01
9.450000000000000622e-01 5.998038667647463962e-01
9.500000000000000666e-01 6.016850818658198152e-01
9.550000000000000711e-01 6.035550808391835220e-01
9.599999999999999645e-01 6.053937796725603615e-01
9.649999999999999689e-01 6.072353167951014541e-01
9.699999999999999734e-01 6.090274302568596809e-01
9.749999999999999778e-01 6.108580246709004458e-01
9.799999999999999822e-01 6.127130357140845307e-01
9.849999999999999867e-01 6.146122138629718235e-01
9.899999999999999911e-01 6.165124720035973782e-01
9.949999999999999956e-01 6.184562545297237479e-01
1.000000000000000000e+00 6.203675811370937820e-01
1.005000000000000115e+00 6.223131963999187777e-01
1.010000000000000009e+00 6.242653501099320046e-01
1.015000000000000124e+00 6.262371617201880625e-01
1.020000000000000018e+00 6.281883182766049289e-01
1.024999999999999911e+00 6.300986323780506382e-01
1.030000000000000027e+00 6.320067717833847132e-01
1.034999999999999920e+00 6.339539533188479625e-01
1.040000000000000036e+00 6.358779259944523643e-01
1.044999999999999929e+00 6.378209786885774557e-01
1.050000000000000044e+00 6.397846235574514706e-01
1.054999999999999938e+00 6.417850429543956459e-01
1.060000000000000053e+00 6.438458189507887397e-01
1.064999999999999947e+00 6.458967412916610806e-01
1.070000000000000062e+00 6.479847276950673196e-01
1.074999999999999956e+00 6.500839512577130108e-01
1.080000000000000071e+00 6.521995292058905269e-01
1.084999999999999964e+00 6.543417809156820697e-01
1.090000000000000080e+00 6.564411597921618879e-01
1.094999999999999973e+00 6.585190424516671470e-01
1.100000000000000089e+00 6.605905994999673458e-01
1.104999999999999982e+00 6.626689847326600047e-01
1.110000000000000098e+00 6.647479234954637439e-01
1.114999999999999991e+00 6.668655782445922497e-01
1.120000000000000107e+00 6.690085509134281461e-01
1.125000000000000000e+00 6.711709584884349988e-01
1.130000000000000115e+00 6.733483987301419615e-01
1.135000000000000009e+00 6.755745634817458267e-01
1.140000000000000124e+00 6.778011665677361464e-01
1.145000000000000018e+00 6.800724105542420572e-01
1.150000000000000133e+00 6.823125868857076171e-01
1.155000000000000027e+00 6.845668973615509634e-01
1.159999999999999920e+00 6.868030171514404314e-01
1.165000000000000036e+00 6.890467698370555949e-01
1.169999999999999929e+00 6.912606766139592906e-01
1.175000000000000044e+00 6.934075943019863963e-01
1.179999999999999938e+00 6.955857114662807872e-01
1.185000000000000053e+00 6.977274640972778164e-01
1.189999999999999947e+00 6.998582132003842160e-01
1.195000000000000062e+00 7.020172047153501182e-01
1.199999999999999956e+00 7.041208736698121307e-01
1.205000000000000071e+00 7.062767295228020714e-01
1.209999999999999964e+00 7.084660706955689946e-01
1.215000000000000080e+00 7.106721142876372133e-01
1.219999999999999973e+00 7.128867337676686455e-01
1.225000000000000089e+00 7.151430655733981290e-01
1.229999999999999982e+00 7.174392213239837446e-01
1.235000000000000098e+00 7.197248899580256376e-01
1.239999999999999991e+00 7.220394069924224167e-01
1.245000000000000107e+00 7.243695147594602091e-01
1.250000000000000000e+00 7.266941001701328062e-01
1.255000000000000115e+00 7.290316970571139032e-01
1.260000000000000009e+00 7.313722112606978465e-01
1.265000000000000124e+00 7.337280879468303096e-01
1.270000000000000018e+00 7.360699387224213242e-01
1.275000000000000133e+00 7.384338687643182686e-01
1.280000000000000027e+00 7.407848632211696538e-01
1.284999999999999920e+00 7.431445663527668222e-01
1.290000000000000036e+00 7.455351270843730838e-01
1.294999999999999929e+00 7.479270541390726779e-01
1.300000000000000044e+00 7.502852626557164895e-01
1.304999999999999938e+00 7.526423553886797402e-01
1.310000000000000053e+00 7.549915729085316940e-01
1.314999999999999947e+00 7.573507804914129116e-01
1.320000000000000062e+00 7.596921250577394202e-01
1.324999999999999956e+00 7.619952366637529062e-01
1.330000000000000071e+00 7.643146339192358196e-01
1.334999999999999964e+00 7.666665167602911835e-01
1.340000000000000080e+00 7.689848429759768011e-01
1.344999999999999973e+00 7.713577780764913072e-01
1.350000000000000089e+00 7.737323188835013577e-01
1.354999999999999982e+00 7.761090797612361092e-01
1.360000000000000098e+00 7.785242635942301037e-01
1.364999999999999991e+00 7.809080844175868563e-01
1.370000000000000107e+00 7.833115400894695712e-01
1.375000000000000000e+00 7.857565832268446071e-01
1.380000000000000115e+00 7.881753191458483743e-01
1.385000000000000009e+00 7.906501059132721165e-01
1.390000000000000124e+00 7.930977799572751508e-01
1.395000000000000018e+00 7.955782408763517610e-01
1.400000000000000133e+00 7.980670529724430695e-01
1.405000000000000027e+00 8.006048955722618876e-01
1.409999999999999920e+00 8.031223811130655532e-01
1.415000000000000036e+00 8.056709910270875019e-01
1.419999999999999929e+00 8.081754909819750532e-01
1.425000000000000044e+00 8.107276125259290644e-01
1.429999999999999938e+00 8.132448782356650474e-01
1.435000000000000053e+00 8.157405188033083343e-01
1.439999999999999947e+00 8.182348035449322765e-01
1.445000000000000062e+00 8.207312131562302104e-01
1.449999999999999956e+00 8.232138719278726535e-01
1.455000000000000071e+00 8.256553604646038602e-01
1.459999999999999964e+00 8.281384699547928996e-01
1.465000000000000080e+00 8.306631794401354574e-01
1.469999999999999973e+00 8.331586695245416507e-01
1.475000000000000089e+00 8.356751731072625811e-01
1.479999999999999982e+00 8.382174658954718582e-01
1.485000000000000098e+00 8.407860905588657729e-01
1.489999999999999991e+00 8.433313680271554702e-01
1.495000000000000107e+00 8.459337729887360657e-01
1.500000000000000000e+00 8.484924009331619166e-01
1.505000000000000115e+00 8.511043418549850692e-01
1.510000000000000009e+00 8.537134343560880412e-01
1.515000000000000124e+00 8.563280369846832940e-01
1.520000000000000018e+00 8.589534716016085092e-01
1.525000000000000133e+00 8.615606144437348846e-01
1.530000000000000027e+00 8.641213336292028480e-01
1.535000000000000142e+00 8.667248371667016782e-01
1.540000000000000036e+00 8.693150607388684392e-01
1.544999999999999929e+00 8.718676522326475054e-01
1.550000000000000044e+00 8.744554167641198639e-01
1.554999999999999938e+00 8.770493129728831327e-01
1.560000000000000053e+00 8.796188312698003386e-01
1.564999999999999947e+00 8.822408213957899648e-01
1.570000000000000062e+00 8.848481426627344826e-01
1.574999999999999956e+00 8.875187485477886717e-01
1.580000000000000071e+00 8.902102654271765170e-01
1.584999999999999964e+00 8.929330576210349202e-01
1.590000000000000080e+00 8.957123657342996870e-01
1.594999999999999973e+00 8.984983016441634440e-01
1.600000000000000089e+00 9.012822954230568229e-01
1.604999999999999982e+00 9.040903866575362713e-01
1.610000000000000098e+00 9.068893954040269101e-01
1.614999999999999991e+00 9.097011125141648558e-01
1.620000000000000107e+00 9.124797237818280671e-01
1.625000000000000000e+00 9.152531896926475730e-01
1.630000000000000115e+00 9.180279725932741774e-01
1.635000000000000009e+00 9.208021660728858970e-01
1.640000000000000124e+00 9.235871344165476060e-01
1.645000000000000018e+00 9.263793221046814352e-01
1.650000000000000133e+00 9.291638355346981681e-01
1.655000000000000027e+00 9.319655686166196107e-01
1.660000000000000142e+00 9.348075893220114674e-01
1.665000000000000036e+00 9.376286211013660221e-01
1.669999999999999929e+00 9.405063927575961769e-01
1.675000000000000044e+00 9.433794037745674155e-01
1.679999999999999938e+00 9.462389663991331856e-01
1.685000000000000053e+00 9.490838627596360766e-01
1.689999999999999947e+00 9.519107829137229970e-01
1.695000000000000062e+00 9.547357820243936866e-01
1.699999999999999956e+00 9.575671134465745249e-01
1.705000000000000071e+00 9.603272699538147883e-01
1.709999999999999964e+00 9.630915821124593768e-01
1.715000000000000080e+00 9.658760421045823330e-01
1.719999999999999973e+00 9.686166147322740061e-01
1.725000000000000089e+00 9.713510596043232193e-01
1.729999999999999982e+00 9.741029635922909824e-01
1.735000000000000098e+00 9.768908852115893993e-01
1.739999999999999991e+00 9.797111847117639938e-01
1.745000000000000107e+00 9.825013481214989186e-01
1.750000000000000000e+00 9.853326549591051586e-01
1.755000000000000115e+00 9.882035023583396471e-01
1.760000000000000009e+00 9.910726005476431233e-01
1.765000000000000124e+00 9.939705568060235308e-01
1.770000000000000018e+00 9.968516914352969494e-01
1.775000000000000133e+00 9.997921152514258614e-01
1.780000000000000027e+00 1.002681890117742114e+00
1.785000000000000142e+00 1.005575484349056969e+00
1.790000000000000036e+00 1.008440232696721006e+00
1.794999999999999929e+00 1.011291062583467015e+00
1.800000000000000044e+00 1.014144776926970470e+00
1.804999999999999938e+00 1.016975380777424220e+00
1.810000000000000053e+00 1.019774782735334284e+00
1.814999999999999947e+00 1.022586514085475740e+00
1.820000000000000062e+00 1.025368422818880410e+00
1.824999999999999956e+00 1.028167395474674839e+00
1.830000000000000071e+00 1.030956044712597164e+00
1.834999999999999964e+00 1.033782413325396776e+00
1.840000000000000080e+00 1.036601341301365276e+00
1.844999999999999973e+00 1.039455946871725489e+00
1.850000000000000089e+00 1.042266442017104833e+00
1.854999999999999982e+00 1.045130850546251322e+00
1.860000000000000098e+00 1.048001826538372816e+00
1.864999999999999991e+00 1.050854078528367541e+00
1.870000000000000107e+00 1.053725827248979341e+00
1.875000000000000000e+00 1.056558649180304732e+00
1.880000000000000115e+00 1.059386659104230910e+00
1.885000000000000009e+00 1.062212104385905853e+00
1.890000000000000124e+00 1.064963054617130034e+00
1.895000000000000018e+00 1.067777132062410317e+00
1.900000000000000133e+00 1.070554023615261308e+00
1.905000000000000027e+00 1.073351040074330243e+00
1.910000000000000142e+00 1.076155820164552024e+00
1.915000000000000036e+00 1.078981166545902370e+00
1.919999999999999929e+00 1.081795490183818487e+00
1.925000000000000044e+00 1.084640778013958196e+00
1.929999999999999938e+00 1.087430774549049461e+00
1.935000000000000053e+00 1.090244974120571309e+00
1.939999999999999947e+00 1.093050490200717872e+00
1.945000000000000062e+00 1.095788086402159411e+00
1.949999999999999956e+00 1.098529373575974022e+00
1.955000000000000071e+00 1.101249372302309570e+00
1.959999999999999964e+00 1.103998221549536751e+00
1.965000000000000080e+00 1.106706275535495054e+00
1.969999999999999973e+00 1.109463958479363521e+00
1.975000000000000089e+00 1.112218519007665885e+00
1.979999999999999982e+00 1.115011240691408778e+00
1.985000000000000098e+00 1.117801298753809069e+00
1.989999999999999991e+00 1.120597682121054817e+00
