# time (ps)	msd (pm2)
0.000000000000000000e+00 -2.656189891493533427e-06
5.000000000000000104e-03 2.673862415514260960e-03
1.000000000000000021e-02 1.023797276932247868e-02
1.499999999999999944e-02 2.173165200335761688e-02
2.000000000000000042e-02 3.575629188332775377e-02
2.500000000000000139e-02 5.082695971360992604e-02
2.999999999999999889e-02 6.555546791321173461e-02
3.500000000000000333e-02 7.898935620890279452e-02
4.000000000000000083e-02 9.050184275357765762e-02
4.499999999999999833e-02 1.000099077012706061e-01
5.000000000000000278e-02 1.077664818136376268e-01
5.500000000000000028e-02 1.141460308886720204e-01
5.999999999999999778e-02 1.198092390665385226e-01
6.500000000000000222e-02 1.253229838364560700e-01
7.000000000000000666e-02 1.310983880627854536e-01
7.499999999999999722e-02 1.375088024272972109e-01
8.000000000000000167e-02 1.446523253402973441e-01
8.500000000000000611e-02 1.524872628002506281e-01
8.999999999999999667e-02 1.608804848719909697e-01
9.500000000000000111e-02 1.695602381880613463e-01
1.000000000000000056e-01 1.781485158780972411e-01
1.049999999999999961e-01 1.864367425251398369e-01
1.100000000000000006e-01 1.941132529552376806e-01
1.150000000000000050e-01 2.011086697458875916e-01
1.199999999999999956e-01 2.073436824768953302e-01
1.250000000000000000e-01 2.128772115164921930e-01
1.300000000000000044e-01 2.178461956553023882e-01
1.350000000000000089e-01 2.223828253739481842e-01
1.400000000000000133e-01 2.266851381590908876e-01
1.449999999999999900e-01 2.308727624404285639e-01
1.499999999999999944e-01 2.350841820050051101e-01
1.549999999999999989e-01 2.393448847186779305e-01
1.600000000000000033e-01 2.437122002212342986e-01
1.650000000000000078e-01 2.481317399505115484e-01
1.700000000000000122e-01 2.525783421286299513e-01
1.750000000000000167e-01 2.569016197040493443e-01
1.799999999999999933e-01 2.611382014328126333e-01
1.849999999999999978e-01 2.651960390801696432e-01
1.900000000000000022e-01 2.690150090328000121e-01
1.950000000000000067e-01 2.726895077716703919e-01
2.000000000000000111e-01 2.761285761326245369e-01
2.050000000000000155e-01 2.794698826502825528e-01
2.099999999999999922e-01 2.827063526790715708e-01
2.149999999999999967e-01 2.859459381449430126e-01
2.200000000000000011e-01 2.891513130828397005e-01
2.250000000000000056e-01 2.924051120638118673e-01
2.300000000000000100e-01 2.956917836074138828e-01
2.350000000000000144e-01 2.989780019616016249e-01
2.399999999999999911e-01 3.023252053762007785e-01
2.449999999999999956e-01 3.056292131426996406e-01
2.500000000000000000e-01 3.088915974762931893e-01
2.550000000000000044e-01 3.121228297393092155e-01
2.600000000000000089e-01 3.153096297262211745e-01
2.650000000000000133e-01 3.184165713989556834e-01
2.700000000000000178e-01 3.214119017530103761e-01
2.750000000000000222e-01 3.243410915232231573e-01
2.800000000000000266e-01 3.272061470924439996e-01
2.850000000000000311e-01 3.300506766400664871e-01
2.899999999999999800e-01 3.328660632205567849e-01
2.949999999999999845e-01 3.357102505111156932e-01
2.999999999999999889e-01 3.385044238830286489e-01
3.049999999999999933e-01 3.413391793495892945e-01
3.099999999999999978e-01 3.441799740151759712e-01
3.150000000000000022e-01 3.470117497948751462e-01
3.200000000000000067e-01 3.498089585054339201e-01
3.250000000000000111e-01 3.525601754569988033e-01
3.300000000000000155e-01 3.552520092842237354e-01
3.350000000000000200e-01 3.579128381697555539e-01
3.400000000000000244e-01 3.604601196805600205e-01
3.450000000000000289e-01 3.629535383584668873e-01
3.500000000000000333e-01 3.653694968036222401e-01
3.549999999999999822e-01 3.677081696715002179e-01
3.599999999999999867e-01 3.700003109438743110e-01
3.649999999999999911e-01 3.721871650214302329e-01
3.699999999999999956e-01 3.743963923149487560e-01
3.750000000000000000e-01 3.765576215915395486e-01
3.800000000000000044e-01 3.786508748736058250e-01
3.850000000000000089e-01 3.807831153440003336e-01
3.900000000000000133e-01 3.828658440987108280e-01
3.950000000000000178e-01 3.849491204608090911e-01
4.000000000000000222e-01 3.870649252114591876e-01
4.050000000000000266e-01 3.891160672490722172e-01
4.100000000000000311e-01 3.911724248542309268e-01
4.150000000000000355e-01 3.931775856102320277e-01
4.199999999999999845e-01 3.952202246566239863e-01
4.249999999999999889e-01 3.971818552673860858e-01
4.299999999999999933e-01 3.990753793630131829e-01
4.349999999999999978e-01 4.009611040114361979e-01
4.400000000000000022e-01 4.027957336754255935e-01
4.450000000000000067e-01 4.046288171630256225e-01
4.500000000000000111e-01 4.064063132798266809e-01
4.550000000000000155e-01 4.081511992008025613e-01
4.600000000000000200e-01 4.098757762984788777e-01
4.650000000000000244e-01 4.116237190784589606e-01
4.700000000000000289e-01 4.134182801931809426e-01
4.750000000000000333e-01 4.151938087841446912e-01
4.799999999999999822e-01 4.169738437772845807e-01
4.849999999999999867e-01 4.187308040924153651e-01
4.899999999999999911e-01 4.205417907572783776e-01
4.949999999999999956e-01 4.223611147338244276e-01
5.000000000000000000e-01 4.241560785770265851e-01
5.050000000000000044e-01 4.259516474859201818e-01
5.100000000000000089e-01 4.276916697470027340e-01
5.150000000000000133e-01 4.294204334732808492e-01
5.200000000000000178e-01 4.311729968563043358e-01
5.250000000000000222e-01 4.329548763905701758e-01
5.300000000000000266e-01 4.347293624432572723e-01
5.350000000000000311e-01 4.365166749593665241e-01
5.400000000000000355e-01 4.384011529339537638e-01
5.450000000000000400e-01 4.402953589597524697e-01
5.500000000000000444e-01 4.422353904961546234e-01
5.550000000000000488e-01 4.441831670084667727e-01
5.600000000000000533e-01 4.461437931346592389e-01
5.650000000000000577e-01 4.481095932074586896e-01
5.700000000000000622e-01 4.501306960104114463e-01
5.750000000000000666e-01 4.520831974562137812e-01
5.799999999999999600e-01 4.540882701683328082e-01
5.849999999999999645e-01 4.560344334908323360e-01
5.899999999999999689e-01 4.579725017922808838e-01
5.949999999999999734e-01 4.598952789459937462e-01
5.999999999999999778e-01 4.618838200137099781e-01
6.049999999999999822e-01 4.637997476725256862e-01
6.099999999999999867e-01 4.657288319627244655e-01
6.149999999999999911e-01 4.676854358430817538e-01
6.199999999999999956e-01 4.696303246577253065e-01
6.250000000000000000e-01 4.715834210513087377e-01
6.300000000000000044e-01 4.735137220946168957e-01
6.350000000000000089e-01 4.754986818156571315e-01
6.400000000000000133e-01 4.774596052332991114e-01
6.450000000000000178e-01 4.793753981193761282e-01
6.500000000000000222e-01 4.812586489127104183e-01
6.550000000000000266e-01 4.831147386141432243e-01
6.600000000000000311e-01 4.849133161196912956e-01
6.650000000000000355e-01 4.866937892007822675e-01
6.700000000000000400e-01 4.884576653152043479e-01
6.750000000000000444e-01 4.902188166891190968e-01
6.800000000000000488e-01 4.919979404857086625e-01
6.850000000000000533e-01 4.937987040936804850e-01
6.900000000000000577e-01 4.956352193264932371e-01
6.950000000000000622e-01 4.975134124301826555e-01
7.000000000000000666e-01 4.994005666934666632e-01
7.049999999999999600e-01 5.013437541308179979e-01
7.099999999999999645e-01 5.032531138261322479e-01
7.149999999999999689e-01 5.051712430264723164e-01
7.199999999999999734e-01 5.070152754638845849e-01
7.249999999999999778e-01 5.089411109554520252e-01
7.299999999999999822e-01 5.107927015782689484e-01
7.349999999999999867e-01 5.126186247020708686e-01
7.399999999999999911e-01 5.144493138020431733e-01
7.449999999999999956e-01 5.162518759597339857e-01
7.500000000000000000e-01 5.180533483310156839e-01
7.550000000000000044e-01 5.198810002307497902e-01
7.600000000000000089e-01 5.217511198594754207e-01
7.650000000000000133e-01 5.236008635679263445e-01
7.700000000000000178e-01 5.254968145984719730e-01
7.750000000000000222e-01 5.273633224325922075e-01
7.800000000000000266e-01 5.292054268668583417e-01
7.850000000000000311e-01 5.310600703810692824e-01
7.900000000000000355e-01 5.329035684163097031e-01
7.950000000000000400e-01 5.347600632299072121e-01
8.000000000000000444e-01 5.365297386946799030e-01
8.050000000000000488e-01 5.383245142704680131e-01
8.100000000000000533e-01 5.400770402406175341e-01
8.150000000000000577e-01 5.418547427278170847e-01
8.200000000000000622e-01 5.436482531417905495e-01
8.250000000000000666e-01 5.454967979698305269e-01
8.300000000000000711e-01 5.473551581669375832e-01
8.349999999999999645e-01 5.492956708516720798e-01
8.399999999999999689e-01 5.512708984158714021e-01
8.449999999999999734e-01 5.532933713547844023e-01
8.499999999999999778e-01 5.552945587112538828e-01
8.549999999999999822e-01 5.573297601401251411e-01
8.599999999999999867e-01 5.593692665137662834e-01
8.649999999999999911e-01 5.613817889821255402e-01
8.699999999999999956e-01 5.633889471275004279e-01
8.750000000000000000e-01 5.653915526813959591e-01
8.800000000000000044e-01 5.673142402774278281e-01
8.850000000000000089e-01 5.692374225560398182e-01
8.900000000000000133e-01 5.711861114724621213e-01
8.950000000000000178e-01 5.730867450557879383e-01
9.000000000000000222e-01 5.750077006651606037e-01
9.050000000000000266e-01 5.768884364310457036e-01
9.100000000000000311e-01 5.787984421541565450e-01
9.150000000000000355e-01 5.807503361468463465e-01
9.200000000000000400e-01 5.826631936601451844e-01
9.250000000000000444e-01 5.846109309936958764e-01
9.300000000000000488e-01 5.865253433492362278e-01
9.350000000000000533e-01 5.884837842725186841e-01
9.400000000000000577e-01 5.903947349505994646e-01
9.450000000000000622e-01 5.922745070784125598e-01
9.500000000000000666e-01 5.941219092050549211e-01
9.550000000000000711e-01 5.959588142199347960e-01
9.599999999999999645e-01 5.977440144562435886e-01
9.649999999999999689e-01 5.995304367243948773e-01
9.699999999999999734e-01 6.012263503936170483e-01
9.749999999999999778e-01 6.029697943902340151e-01
9.799999999999999822e-01 6.047342994242194125e-01
9.849999999999999867e-01 6.065532629194786418e-01
9.899999999999999911e-01 6.083690842772172536e-01
9.949999999999999956e-01 6.102278710344793966e-01
1.000000000000000000e+00 6.120483371051224086e-01
1.005000000000000115e+00 6.139087264961867740e-01
1.010000000000000009e+00 6.157868754323435612e-01
1.015000000000000124e+00 6.176839835266030310e-01
1.020000000000000018e+00 6.195394844641982646e-01
1.024999999999999911e+00 6.213437235374609235e-01
1.030000000000000027e+00 6.231358735793218750e-01
1.034999999999999920e+00 6.249713236328674482e-01
1.040000000000000036e+00 6.267643745753331830e-01
1.044999999999999929e+00 6.285777396488069213e-01
1.050000000000000044e+00 6.304116876359209254e-01
1.054999999999999938e+00 6.322886904833525668e-01
1.060000000000000053e+00 6.342510349400131142e-01
1.064999999999999947e+00 6.361811734136363361e-01
1.070000000000000062e+00 6.381764112471783879e-01
1.074999999999999956e+00 6.401697157732237908e-01
1.080000000000000071e+00 6.421911066739406371e-01
1.084999999999999964e+00 6.442387451503901463e-01
1.090000000000000080e+00 6.462514178790363939e-01
1.094999999999999973e+00 6.481920605768280996e-01
1.100000000000000089e+00 6.501325890319487044e-01
1.104999999999999982e+00 6.520874934035464365e-01
1.110000000000000098e+00 6.540392262429046699e-01
1.114999999999999991e+00 6.560363037614203030e-01
1.120000000000000107e+00 6.580461567577657878e-01
1.125000000000000000e+00 6.600812710244757797e-01
1.130000000000000115e+00 6.621139515536605957e-01
1.135000000000000009e+00 6.642114107993164485e-01
1.140000000000000124e+00 6.662912400398759427e-01
1.145000000000000018e+00 6.684251288881776221e-01
1.150000000000000133e+00 6.705109827596594796e-01
1.155000000000000027e+00 6.726221560937150068e-01
1.159999999999999920e+00 6.747036155935587365e-01
1.165000000000000036e+00 6.767974460901184930e-01
1.169999999999999929e+00 6.788699258799780756e-01
1.175000000000000044e+00 6.808516684762023763e-01
1.179999999999999938e+00 6.829050401131008252e-01
1.185000000000000053e+00 6.849070829972868646e-01
1.189999999999999947e+00 6.869151630438835587e-01
1.195000000000000062e+00 6.889837671097371885e-01
1.199999999999999956e+00 6.909753183388810394e-01
1.205000000000000071e+00 6.930381952520010547e-01
1.209999999999999964e+00 6.951498242546471085e-01
1.215000000000000080e+00 6.972730922312431190e-01
1.219999999999999973e+00 6.993994015857183388e-01
1.225000000000000089e+00 7.015775381347122419e-01
1.229999999999999982e+00 7.037989229947669845e-01
1.235000000000000098e+00 7.059947127487352647e-01
1.239999999999999991e+00 7.082262485619322812e-01
1.245000000000000107e+00 7.104647544644954182e-01
1.250000000000000000e+00 7.126940256841006738e-01
1.255000000000000115e+00 7.149387248763547920e-01
1.260000000000000009e+00 7.171869015664540381e-01
1.265000000000000124e+00 7.194440376118481639e-01
1.270000000000000018e+00 7.216910388507012941e-01
1.275000000000000133e+00 7.239810644996704792e-01
1.280000000000000027e+00 7.262401627263919135e-01
1.284999999999999920e+00 7.285276716789825802e-01
1.290000000000000036e+00 7.308615259723717505e-01
1.294999999999999929e+00 7.332020593111641116e-01
1.300000000000000044e+00 7.354950777194280143e-01
1.304999999999999938e+00 7.377907105870779025e-01
1.310000000000000053e+00 7.400797509570516963e-01
1.314999999999999947e+00 7.423830431007237829e-01
1.320000000000000062e+00 7.446539301933532418e-01
1.324999999999999956e+00 7.468788900159266664e-01
1.330000000000000071e+00 7.491240154855509648e-01
1.334999999999999964e+00 7.514078554872096749e-01
1.340000000000000080e+00 7.536332646255861079e-01
1.344999999999999973e+00 7.559392130243332009e-01
1.350000000000000089e+00 7.582407632971516209e-01
1.354999999999999982e+00 7.605523187562196474e-01
1.360000000000000098e+00 7.628945251368108860e-01
1.364999999999999991e+00 7.651859966593048679e-01
1.370000000000000107e+00 7.674999143810794511e-01
1.375000000000000000e+00 7.698611098234244832e-01
1.380000000000000115e+00 7.721575296890128559e-01
1.385000000000000009e+00 7.745136711344025038e-01
1.390000000000000124e+00 7.768181421773699968e-01
1.395000000000000018e+00 7.791577585954118090e-01
1.400000000000000133e+00 7.814843494688441528e-01
1.405000000000000027e+00 7.838895648834850460e-01
1.409999999999999920e+00 7.862636430278081567e-01
1.415000000000000036e+00 7.886761595405430425e-01
1.419999999999999929e+00 7.910352637644502138e-01
1.425000000000000044e+00 7.934739666973481542e-01
1.429999999999999938e+00 7.958621081536764175e-01
1.435000000000000053e+00 7.982315158958986911e-01
1.439999999999999947e+00 8.005865175870159334e-01
1.445000000000000062e+00 8.029320875297963900e-01
1.449999999999999956e+00 8.052598969601372225e-01
1.455000000000000071e+00 8.075327365265493329e-01
1.459999999999999964e+00 8.098453846305661008e-01
1.465000000000000080e+00 8.122206080155113250e-01
1.469999999999999973e+00 8.145444971189457206e-01
1.475000000000000089e+00 8.169122180537039535e-01
1.479999999999999982e+00 8.193022482805338846e-01
1.485000000000000098e+00 8.217327445171624944e-01
1.489999999999999991e+00 8.241416174246094517e-01
1.495000000000000107e+00 8.266379549167510721e-01
1.500000000000000000e+00 8.290734860844565235e-01
1.505000000000000115e+00 8.315947144195035001e-01
1.510000000000000009e+00 8.341159151664260252e-01
1.515000000000000124e+00 8.366641021138895296e-01
1.520000000000000018e+00 8.392343041791348046e-01
1.525000000000000133e+00 8.417731027680767086e-01
1.530000000000000027e+00 8.442559244748595315e-01
1.535000000000000142e+00 8.468018093440641270e-01
1.540000000000000036e+00 8.493480577366072648e-01
1.544999999999999929e+00 8.518214102376582275e-01
1.550000000000000044e+00 8.543474586738751819e-01
1.554999999999999938e+00 8.568703487423581233e-01
1.560000000000000053e+00 8.593432737814691302e-01
1.564999999999999947e+00 8.618816771219783845e-01
1.570000000000000062e+00 8.643850007461187923e-01
1.574999999999999956e+00 8.669816208897654919e-01
1.580000000000000071e+00 8.695803195167347566e-01
1.584999999999999964e+00 8.722309822552768432e-01
1.590000000000000080e+00 8.749547914588139408e-01
1.594999999999999973e+00 8.777069807948789659e-01
1.600000000000000089e+00 8.804615188705221529e-01
1.604999999999999982e+00 8.832510189810313106e-01
1.610000000000000098e+00 8.860447434313085679e-01
1.614999999999999991e+00 8.888753104902717972e-01
1.620000000000000107e+00 8.916426669328915144e-01
1.625000000000000000e+00 8.944130064920859935e-01
1.630000000000000115e+00 8.971732183319111043e-01
1.635000000000000009e+00 8.999328846534550008e-01
1.640000000000000124e+00 9.026909789381414306e-01
1.645000000000000018e+00 9.054597056506106245e-01
1.650000000000000133e+00 9.082114021795286707e-01
1.655000000000000027e+00 9.109764960935937683e-01
1.660000000000000142e+00 9.138011431394650330e-01
1.665000000000000036e+00 9.166051564788434414e-01
1.669999999999999929e+00 9.194784290819595363e-01
1.675000000000000044e+00 9.223356095167420943e-01
1.679999999999999938e+00 9.251735593910718203e-01
1.685000000000000053e+00 9.279762160274571681e-01
1.689999999999999947e+00 9.307493943872535702e-01
1.695000000000000062e+00 9.335021680161696978e-01
1.699999999999999956e+00 9.362484227977573292e-01
1.705000000000000071e+00 9.388842693968384445e-01
1.709999999999999964e+00 9.415129074407101450e-01
1.715000000000000080e+00 9.441624765863805280e-01
1.719999999999999973e+00 9.467471353994307837e-01
1.725000000000000089e+00 9.493209784098954884e-01
1.729999999999999982e+00 9.519283943597122155e-01
1.735000000000000098e+00 9.545834533206910555e-01
1.739999999999999991e+00 9.572954762527249306e-01
1.745000000000000107e+00 9.599557446221244073e-01
1.750000000000000000e+00 9.626874727264707055e-01
1.755000000000000115e+00 9.654622472237028852e-01
1.760000000000000009e+00 9.682328872696981392e-01
1.765000000000000124e+00 9.710425359380195909e-01
1.770000000000000018e+00 9.738306816127072496e-01
1.775000000000000133e+00 9.767049854419365129e-01
1.780000000000000027e+00 9.795224753084006419e-01
1.785000000000000142e+00 9.823500924586034966e-01
1.790000000000000036e+00 9.851467768185215856e-01
1.794999999999999929e+00 9.879332409043570795e-01
1.800000000000000044e+00 9.907405123446443307e-01
1.804999999999999938e+00 9.935182107980425892e-01
1.810000000000000053e+00 9.962406258147642468e-01
1.814999999999999947e+00 9.989838464245405225e-01
1.820000000000000062e+00 1.001676856679209804e+00
1.824999999999999956e+00 1.004368208675807450e+00
1.830000000000000071e+00 1.007032804706167406e+00
1.834999999999999964e+00 1.009740236892489262e+00
1.840000000000000080e+00 1.012409141620904451e+00
1.844999999999999973e+00 1.015126951121055665e+00
1.850000000000000089e+00 1.017767900500151423e+00
1.854999999999999982e+00 1.020497600044328212e+00
1.860000000000000098e+00 1.023228064434369644e+00
1.864999999999999991e+00 1.025940248562132950e+00
1.870000000000000107e+00 1.028678078518463490e+00
1.875000000000000000e+00 1.031371093778626236e+00
1.880000000000000115e+00 1.034039513154001000e+00
1.885000000000000009e+00 1.036685562869924748e+00
1.890000000000000124e+00 1.039217189944684483e+00
1.895000000000000018e+00 1.041812545858854522e+00
1.900000000000000133e+00 1.044346494476443565e+00
1.905000000000000027e+00 1.046880828272013231e+00
1.910000000000000142e+00 1.049422073880417638e+00
1.915000000000000036e+00 1.051979282735008514e+00
1.919999999999999929e+00 1.054523043032257856e+00
1.925000000000000044e+00 1.057099012022191475e+00
1.929999999999999938e+00 1.059618048869967799e+00
1.935000000000000053e+00 1.062193748813648142e+00
1.939999999999999947e+00 1.064756123587643710e+00
1.945000000000000062e+00 1.067244693712477988e+00
1.949999999999999956e+00 1.069755590140823109e+00
1.955000000000000071e+00 1.072237641885576132e+00
1.959999999999999964e+00 1.074771469647146205e+00
1.965000000000000080e+00 1.077247152817514042e+00
1.969999999999999973e+00 1.079797995493070317e+00
1.975000000000000089e+00 1.082330885210929683e+00
1.979999999999999982e+00 1.084916535153812589e+00
1.985000000000000098e+00 1.087495896512740590e+00
1.989999999999999991e+00 1.090087847610707650e+00
