# time (ps)	msd (pm2)
0.000000000000000000e+00 7.691425185764167827e-05
5.000000000000000104e-03 2.707981832559022955e-03
1.000000000000000021e-02 1.022102653946113313e-02
1.499999999999999944e-02 2.174120834155123319e-02
2.000000000000000042e-02 3.578309419934373042e-02
2.500000000000000139e-02 5.090602505469900285e-02
2.999999999999999889e-02 6.584430143736282048e-02
3.500000000000000333e-02 7.952166357417431164e-02
4.000000000000000083e-02 9.138550441834228377e-02
4.499999999999999833e-02 1.012531735717938919e-01
5.000000000000000278e-02 1.093124674517670925e-01
5.500000000000000028e-02 1.160216571263219809e-01
5.999999999999999778e-02 1.218618381141542695e-01
6.500000000000000222e-02 1.274934283893975340e-01
7.000000000000000666e-02 1.333449222292701630e-01
7.499999999999999722e-02 1.397428324240193309e-01
8.000000000000000167e-02 1.469302673320621033e-01
8.500000000000000611e-02 1.548551669693822019e-01
8.999999999999999667e-02 1.634371729885823465e-01
9.500000000000000111e-02 1.723554790402993808e-01
1.000000000000000056e-01 1.813290429055930963e-01
1.049999999999999961e-01 1.900442764624421521e-01
1.100000000000000006e-01 1.982402336719054359e-01
1.150000000000000050e-01 2.057666312223408733e-01
1.199999999999999956e-01 2.125495452025499277e-01
1.250000000000000000e-01 2.185835719463982418e-01
1.300000000000000044e-01 2.239420954954675080e-01
1.350000000000000089e-01 2.287892153630430581e-01
1.400000000000000133e-01 2.333262205263851863e-01
1.449999999999999900e-01 2.376522909986800158e-01
1.499999999999999944e-01 2.419189943337920756e-01
1.549999999999999989e-01 2.461921727976225105e-01
1.600000000000000033e-01 2.505274063092804426e-01
1.650000000000000078e-01 2.549200424841783219e-01
1.700000000000000122e-01 2.593176079121708999e-01
1.750000000000000167e-01 2.636526985865053629e-01
1.799999999999999933e-01 2.678673339656162944e-01
1.849999999999999978e-01 2.719161621320317357e-01
1.900000000000000022e-01 2.757934197174171098e-01
1.950000000000000067e-01 2.795012303093943329e-01
2.000000000000000111e-01 2.830687647605770185e-01
2.050000000000000155e-01 2.865444962458416067e-01
2.099999999999999922e-01 2.900113800809703268e-01
2.149999999999999967e-01 2.934983623541670972e-01
2.200000000000000011e-01 2.970565070566872357e-01
2.250000000000000056e-01 3.007223084237348742e-01
2.300000000000000100e-01 3.044264242501605322e-01
2.350000000000000144e-01 3.081884325627762822e-01
2.399999999999999911e-01 3.119546458937269007e-01
2.449999999999999956e-01 3.156550951802031268e-01
2.500000000000000000e-01 3.192814888743369939e-01
2.550000000000000044e-01 3.227800091029409124e-01
2.600000000000000089e-01 3.261239683391142230e-01
2.650000000000000133e-01 3.293657043025631781e-01
2.700000000000000178e-01 3.324887386151911817e-01
2.750000000000000222e-01 3.355283270017513919e-01
2.800000000000000266e-01 3.385231219656109070e-01
2.850000000000000311e-01 3.414922842127854352e-01
2.899999999999999800e-01 3.444778657867112459e-01
2.949999999999999845e-01 3.474646044091891928e-01
2.999999999999999889e-01 3.504525338988940808e-01
3.049999999999999933e-01 3.534755157112853818e-01
3.099999999999999978e-01 3.564399955589313551e-01
3.150000000000000022e-01 3.593605478206739479e-01
3.200000000000000067e-01 3.622417898613702891e-01
3.250000000000000111e-01 3.650706531700088631e-01
3.300000000000000155e-01 3.677880802990499132e-01
3.350000000000000200e-01 3.704538709496015825e-01
3.400000000000000244e-01 3.730318008534664331e-01
3.450000000000000289e-01 3.755784060410586322e-01
3.500000000000000333e-01 3.780549066611898490e-01
3.549999999999999822e-01 3.805069064732410911e-01
3.599999999999999867e-01 3.829121854805488945e-01
3.649999999999999911e-01 3.853329398746114243e-01
3.699999999999999956e-01 3.877144808413625077e-01
3.750000000000000000e-01 3.900369654813810039e-01
3.800000000000000044e-01 3.923384436266126873e-01
3.850000000000000089e-01 3.946033572728059324e-01
3.900000000000000133e-01 3.968426373760578496e-01
3.950000000000000178e-01 3.989938532448605302e-01
4.000000000000000222e-01 4.011088340443638156e-01
4.050000000000000266e-01 4.031978819741883213e-01
4.100000000000000311e-01 4.052674161515865681e-01
4.150000000000000355e-01 4.073161752717670003e-01
4.199999999999999845e-01 4.093260714965605285e-01
4.249999999999999889e-01 4.113250894696089399e-01
4.299999999999999933e-01 4.133483753225950519e-01
4.349999999999999978e-01 4.153763717146152779e-01
4.400000000000000022e-01 4.173717876449477560e-01
4.450000000000000067e-01 4.193491406129050136e-01
4.500000000000000111e-01 4.213704105965344615e-01
4.550000000000000155e-01 4.233925767780600813e-01
4.600000000000000200e-01 4.254084149258232639e-01
4.650000000000000244e-01 4.274657609213046716e-01
4.700000000000000289e-01 4.295772300522360254e-01
4.750000000000000333e-01 4.317273671061728768e-01
4.799999999999999822e-01 4.338747933193221051e-01
4.849999999999999867e-01 4.361092213492666625e-01
4.899999999999999911e-01 4.383243174911578555e-01
4.949999999999999956e-01 4.405300277988182800e-01
5.000000000000000000e-01 4.427680766360932996e-01
5.050000000000000044e-01 4.449534326702290765e-01
5.100000000000000089e-01 4.471254934034958883e-01
5.150000000000000133e-01 4.492649142235152215e-01
5.200000000000000178e-01 4.513535044827716169e-01
5.250000000000000222e-01 4.533911919208500896e-01
5.300000000000000266e-01 4.553719291312479656e-01
5.350000000000000311e-01 4.573795337709925524e-01
5.400000000000000355e-01 4.593863378125445096e-01
5.450000000000000400e-01 4.613779689538256568e-01
5.500000000000000444e-01 4.633747503989310013e-01
5.550000000000000488e-01 4.653938824206504954e-01
5.600000000000000533e-01 4.674278985683288923e-01
5.650000000000000577e-01 4.694586730792569274e-01
5.700000000000000622e-01 4.714603246363167077e-01
5.750000000000000666e-01 4.734461590870936987e-01
5.799999999999999600e-01 4.754148569684418235e-01
5.849999999999999645e-01 4.773660137061276343e-01
5.899999999999999689e-01 4.793050884173366555e-01
5.949999999999999734e-01 4.812643890797262403e-01
5.999999999999999778e-01 4.831946844951671149e-01
6.049999999999999822e-01 4.851908847815253889e-01
6.099999999999999867e-01 4.871864627330246833e-01
6.149999999999999911e-01 4.891878486285571315e-01
6.199999999999999956e-01 4.912066099202533898e-01
6.250000000000000000e-01 4.932265043908460878e-01
6.300000000000000044e-01 4.952253092499001585e-01
6.350000000000000089e-01 4.972275518711451459e-01
6.400000000000000133e-01 4.991932798771216984e-01
6.450000000000000178e-01 5.011570417407271716e-01
6.500000000000000222e-01 5.031034973805661448e-01
6.550000000000000266e-01 5.050285214892579200e-01
6.600000000000000311e-01 5.069897006189144628e-01
6.650000000000000355e-01 5.089202324479218387e-01
6.700000000000000400e-01 5.108651982986439632e-01
6.750000000000000444e-01 5.128035386151240660e-01
6.800000000000000488e-01 5.147830155046840828e-01
6.850000000000000533e-01 5.168015950524530444e-01
6.900000000000000577e-01 5.187982181923807001e-01
6.950000000000000622e-01 5.207750513870925690e-01
7.000000000000000666e-01 5.227806395186940236e-01
7.049999999999999600e-01 5.247522761330324359e-01
7.099999999999999645e-01 5.266953823174436167e-01
7.149999999999999689e-01 5.285874441549808234e-01
7.199999999999999734e-01 5.304483738834273598e-01
7.249999999999999778e-01 5.323032037866142208e-01
7.299999999999999822e-01 5.341431772303778525e-01
7.349999999999999867e-01 5.359612747187398885e-01
7.399999999999999911e-01 5.378214097667883831e-01
7.449999999999999956e-01 5.396912786425017705e-01
7.500000000000000000e-01 5.416054210587933904e-01
7.550000000000000044e-01 5.435900248779896859e-01
7.600000000000000089e-01 5.456349656936582138e-01
7.650000000000000133e-01 5.477345152103395565e-01
7.700000000000000178e-01 5.499143446051624196e-01
7.750000000000000222e-01 5.521446827024883985e-01
7.800000000000000266e-01 5.543420836151595754e-01
7.850000000000000311e-01 5.564960509250865828e-01
7.900000000000000355e-01 5.586696470648072621e-01
7.950000000000000400e-01 5.607635750871543534e-01
8.000000000000000444e-01 5.627961755469373939e-01
8.050000000000000488e-01 5.647714622441957211e-01
8.100000000000000533e-01 5.667388446082055609e-01
8.150000000000000577e-01 5.687189271642651978e-01
8.200000000000000622e-01 5.706810712771360761e-01
8.250000000000000666e-01 5.727049524976280948e-01
8.300000000000000711e-01 5.747859106588568689e-01
8.349999999999999645e-01 5.768694834088223811e-01
8.399999999999999689e-01 5.790209285567171626e-01
8.449999999999999734e-01 5.812061081582041711e-01
8.499999999999999778e-01 5.833991288266893172e-01
8.549999999999999822e-01 5.855375312000211663e-01
8.599999999999999867e-01 5.876966428114933638e-01
8.649999999999999911e-01 5.897928823529550169e-01
8.699999999999999956e-01 5.918887606282069447e-01
8.750000000000000000e-01 5.939498667455035408e-01
8.800000000000000044e-01 5.960233580012642696e-01
8.850000000000000089e-01 5.980754371983593165e-01
8.900000000000000133e-01 6.002217718569803351e-01
8.950000000000000178e-01 6.023100988391082433e-01
9.000000000000000222e-01 6.044608231886943184e-01
9.050000000000000266e-01 6.066506364065299417e-01
9.100000000000000311e-01 6.089166008779413053e-01
9.150000000000000355e-01 6.111894837135466441e-01
9.200000000000000400e-01 6.134495055059153712e-01
9.250000000000000444e-01 6.157119542947299129e-01
9.300000000000000488e-01 6.179356767306558584e-01
9.350000000000000533e-01 6.201418741961044478e-01
9.400000000000000577e-01 6.222626327057920737e-01
9.450000000000000622e-01 6.242982192846852074e-01
9.500000000000000666e-01 6.263503225502781158e-01
9.550000000000000711e-01 6.283636398409269130e-01
9.599999999999999645e-01 6.303476257449758258e-01
9.649999999999999689e-01 6.324166789804852584e-01
9.699999999999999734e-01 6.345149286033444636e-01
9.749999999999999778e-01 6.366609033122510031e-01
9.799999999999999822e-01 6.388992435017842864e-01
9.849999999999999867e-01 6.412450383919170438e-01
9.899999999999999911e-01 6.435940773852911745e-01
9.949999999999999956e-01 6.459419901949956522e-01
1.000000000000000000e+00 6.482928698982963756e-01
1.005000000000000115e+00 6.506522691663827462e-01
1.010000000000000009e+00 6.529649696096682110e-01
1.015000000000000124e+00 6.551437366036225729e-01
1.020000000000000018e+00 6.572974787237778616e-01
1.024999999999999911e+00 6.593778499757323441e-01
1.030000000000000027e+00 6.614305057167596535e-01
1.034999999999999920e+00 6.634438333024633705e-01
1.040000000000000036e+00 6.654421263553200738e-01
1.044999999999999929e+00 6.674572207545637070e-01
1.050000000000000044e+00 6.694934115998047996e-01
1.054999999999999938e+00 6.716139893387879090e-01
1.060000000000000053e+00 6.737864960893642508e-01
1.064999999999999947e+00 6.760105273085768030e-01
1.070000000000000062e+00 6.783171136900338904e-01
1.074999999999999956e+00 6.806641922552597590e-01
1.080000000000000071e+00 6.830322487978447432e-01
1.084999999999999964e+00 6.854240409455185645e-01
1.090000000000000080e+00 6.877994977666834764e-01
1.094999999999999973e+00 6.901840470214495316e-01
1.100000000000000089e+00 6.925271289446989220e-01
1.104999999999999982e+00 6.948643947998569548e-01
1.110000000000000098e+00 6.971634206699020009e-01
1.114999999999999991e+00 6.994823626969225439e-01
1.120000000000000107e+00 7.017264137089523901e-01
1.125000000000000000e+00 7.039627276278246359e-01
1.130000000000000115e+00 7.062316418578894472e-01
1.135000000000000009e+00 7.084883636567413934e-01
1.140000000000000124e+00 7.107573194191739718e-01
1.145000000000000018e+00 7.130301199985195071e-01
1.150000000000000133e+00 7.153138002067195300e-01
1.155000000000000027e+00 7.175949445196888599e-01
1.159999999999999920e+00 7.198743555470270561e-01
1.165000000000000036e+00 7.221457691748583985e-01
1.169999999999999929e+00 7.244115376390025673e-01
1.175000000000000044e+00 7.266822248007466234e-01
1.179999999999999938e+00 7.289510408790605966e-01
1.185000000000000053e+00 7.312240375596079645e-01
1.189999999999999947e+00 7.334843346986924528e-01
1.195000000000000062e+00 7.358153948788198617e-01
1.199999999999999956e+00 7.381494468820266608e-01
1.205000000000000071e+00 7.405102546202486646e-01
1.209999999999999964e+00 7.429321276676319474e-01
1.215000000000000080e+00 7.453644090772487685e-01
1.219999999999999973e+00 7.477876069296495176e-01
1.225000000000000089e+00 7.502267221766562022e-01
1.229999999999999982e+00 7.526301504680106280e-01
1.235000000000000098e+00 7.550431228424790975e-01
1.239999999999999991e+00 7.574155136719206149e-01
1.245000000000000107e+00 7.597762772522121955e-01
1.250000000000000000e+00 7.621065430153468601e-01
1.255000000000000115e+00 7.644282911264486113e-01
1.260000000000000009e+00 7.666965721542783330e-01
1.265000000000000124e+00 7.690152425048075724e-01
1.270000000000000018e+00 7.712627862423894198e-01
1.275000000000000133e+00 7.735694825798278274e-01
1.280000000000000027e+00 7.759037586301549272e-01
1.284999999999999920e+00 7.782642640601417083e-01
1.290000000000000036e+00 7.805916664183263354e-01
1.294999999999999929e+00 7.829704076716977879e-01
1.300000000000000044e+00 7.854062656446454405e-01
1.304999999999999938e+00 7.878536132983801066e-01
1.310000000000000053e+00 7.903109107567467539e-01
1.314999999999999947e+00 7.927165818470194303e-01
1.320000000000000062e+00 7.951226700693295735e-01
1.324999999999999956e+00 7.975499881109670008e-01
1.330000000000000071e+00 7.999554907182392371e-01
1.334999999999999964e+00 8.023267034677927789e-01
1.340000000000000080e+00 8.046694714535796988e-01
1.344999999999999973e+00 8.070228581549709901e-01
1.350000000000000089e+00 8.093492239975155211e-01
1.354999999999999982e+00 8.116820059551240751e-01
1.360000000000000098e+00 8.139922146924506441e-01
1.364999999999999991e+00 8.162645022518597582e-01
1.370000000000000107e+00 8.185680546860986118e-01
1.375000000000000000e+00 8.208953661275596447e-01
1.380000000000000115e+00 8.231995306678039359e-01
1.385000000000000009e+00 8.255293083124904951e-01
1.390000000000000124e+00 8.278704154067999532e-01
1.395000000000000018e+00 8.302541358444400776e-01
1.400000000000000133e+00 8.326572024375835657e-01
1.405000000000000027e+00 8.350359040921382370e-01
1.409999999999999920e+00 8.375065482425947394e-01
1.415000000000000036e+00 8.399566321154584569e-01
1.419999999999999929e+00 8.424009309579427729e-01
1.425000000000000044e+00 8.449029293157297449e-01
1.429999999999999938e+00 8.473717211501327062e-01
1.435000000000000053e+00 8.498311082454036436e-01
1.439999999999999947e+00 8.522875757354676507e-01
1.445000000000000062e+00 8.547287541480548256e-01
1.449999999999999956e+00 8.571564523135368763e-01
1.455000000000000071e+00 8.596162317949894716e-01
1.459999999999999964e+00 8.620703577104019688e-01
1.465000000000000080e+00 8.645792187345365809e-01
1.469999999999999973e+00 8.671280829754497432e-01
1.475000000000000089e+00 8.697031427560385497e-01
1.479999999999999982e+00 8.723252926901507998e-01
1.485000000000000098e+00 8.750288921054314439e-01
1.489999999999999991e+00 8.777684375396166416e-01
1.495000000000000107e+00 8.805612072126970391e-01
1.500000000000000000e+00 8.833827677766328268e-01
1.505000000000000115e+00 8.861637151091759090e-01
1.510000000000000009e+00 8.889958051957370655e-01
1.515000000000000124e+00 8.918183392844262203e-01
1.520000000000000018e+00 8.946529231778459490e-01
1.525000000000000133e+00 8.974506407376551254e-01
1.530000000000000027e+00 9.002275655024143397e-01
1.535000000000000142e+00 9.030356867451091452e-01
1.540000000000000036e+00 9.057968298878319446e-01
1.544999999999999929e+00 9.085922458727166973e-01
1.550000000000000044e+00 9.114283634615478746e-01
1.554999999999999938e+00 9.142193997160356078e-01
1.560000000000000053e+00 9.170022527845156368e-01
1.564999999999999947e+00 9.198139200084091138e-01
1.570000000000000062e+00 9.226195321535235472e-01
1.574999999999999956e+00 9.254383603243043765e-01
1.580000000000000071e+00 9.282597832788940240e-01
1.584999999999999964e+00 9.310782480192705268e-01
1.590000000000000080e+00 9.339091830210347611e-01
1.594999999999999973e+00 9.368023880024815009e-01
1.600000000000000089e+00 9.396774442928091942e-01
1.604999999999999982e+00 9.425937247869961011e-01
1.610000000000000098e+00 9.455281103618916605e-01
1.614999999999999991e+00 9.485276956965672523e-01
1.620000000000000107e+00 9.515011451167078027e-01
1.625000000000000000e+00 9.545032724655961864e-01
1.630000000000000115e+00 9.574868249665481335e-01
1.635000000000000009e+00 9.604230732175188523e-01
1.640000000000000124e+00 9.633232038522288043e-01
1.645000000000000018e+00 9.662010087893949661e-01
1.650000000000000133e+00 9.690204833385760441e-01
1.655000000000000027e+00 9.718023972325660065e-01
1.660000000000000142e+00 9.745901828541008172e-01
1.665000000000000036e+00 9.774167718047769293e-01
1.669999999999999929e+00 9.802147299050094631e-01
1.675000000000000044e+00 9.830774128923093214e-01
1.679999999999999938e+00 9.859779645071293785e-01
1.685000000000000053e+00 9.889167055553883534e-01
1.689999999999999947e+00 9.919079709633312758e-01
1.695000000000000062e+00 9.949256107133375160e-01
1.699999999999999956e+00 9.979305406681571178e-01
1.705000000000000071e+00 1.000958463616384853e+00
1.709999999999999964e+00 1.004056606888881209e+00
1.715000000000000080e+00 1.007160582881679645e+00
1.719999999999999973e+00 1.010194278938300938e+00
1.725000000000000089e+00 1.013251941210235874e+00
1.729999999999999982e+00 1.016248403060564964e+00
1.735000000000000098e+00 1.019267304973366706e+00
1.739999999999999991e+00 1.022272105509696605e+00
1.745000000000000107e+00 1.025241742241199683e+00
1.750000000000000000e+00 1.028194182966890580e+00
1.755000000000000115e+00 1.031113905060371927e+00
1.760000000000000009e+00 1.034091393710868667e+00
1.765000000000000124e+00 1.037036530451863614e+00
1.770000000000000018e+00 1.040014955721458856e+00
1.775000000000000133e+00 1.042972227358081927e+00
1.780000000000000027e+00 1.045954353452709817e+00
1.785000000000000142e+00 1.048957724785563261e+00
1.790000000000000036e+00 1.051958592024681005e+00
1.794999999999999929e+00 1.054962618013562725e+00
1.800000000000000044e+00 1.057958865498560108e+00
1.804999999999999938e+00 1.060982719080420189e+00
1.810000000000000053e+00 1.063964352982396333e+00
1.814999999999999947e+00 1.066979554589010393e+00
1.820000000000000062e+00 1.069983783488634765e+00
1.824999999999999956e+00 1.072962811514641457e+00
1.830000000000000071e+00 1.075920276700677913e+00
1.834999999999999964e+00 1.078843287394851913e+00
1.840000000000000080e+00 1.081749109196677328e+00
1.844999999999999973e+00 1.084584097676371428e+00
1.850000000000000089e+00 1.087428575175525935e+00
1.854999999999999982e+00 1.090219910190589392e+00
1.860000000000000098e+00 1.093006680790268526e+00
1.864999999999999991e+00 1.095806020157055416e+00
1.870000000000000107e+00 1.098609566730767151e+00
1.875000000000000000e+00 1.101443415207791210e+00
1.880000000000000115e+00 1.104302699654550413e+00
1.885000000000000009e+00 1.107238353880836135e+00
1.890000000000000124e+00 1.110207897951710487e+00
1.895000000000000018e+00 1.113179391408730012e+00
1.900000000000000133e+00 1.116150532541482221e+00
1.905000000000000027e+00 1.119159696189062414e+00
1.910000000000000142e+00 1.122151701394105361e+00
1.915000000000000036e+00 1.125117025413561400e+00
1.919999999999999929e+00 1.128029813049035157e+00
1.925000000000000044e+00 1.130906462563486814e+00
1.929999999999999938e+00 1.133766717605629637e+00
1.935000000000000053e+00 1.136566130218864545e+00
1.939999999999999947e+00 1.139374223298012634e+00
1.945000000000000062e+00 1.142170316409101716e+00
1.949999999999999956e+00 1.144923856754022085e+00
1.955000000000000071e+00 1.147717600866376308e+00
1.959999999999999964e+00 1.150562167866485686e+00
1.965000000000000080e+00 1.153454417816986766e+00
1.969999999999999973e+00 1.156400681783121831e+00
1.975000000000000089e+00 1.159366004126474392e+00
1.979999999999999982e+00 1.162364557978152302e+00
1.985000000000000098e+00 1.165381497356814844e+00
1.989999999999999991e+00 1.168388073966878604e+00
