# time (ps)	msd (A2)
0.000000000000000000e+00 3.170392787204307666e-04
1.000000000000000000e+00 7.923581412370447330e-01
2.000000000000000000e+00 1.046202045790441959e+00
3.000000000000000000e+00 1.252945984737490859e+00
4.000000000000000000e+00 1.434901096807763565e+00
5.000000000000000000e+00 1.598784587897293052e+00
6.000000000000000000e+00 1.754031398875715242e+00
7.000000000000000000e+00 1.901033858476870009e+00
8.000000000000000000e+00 2.040254105697297149e+00
9.000000000000000000e+00 2.174262953542096977e+00
1.000000000000000000e+01 2.302260342344682797e+00
1.100000000000000000e+01 2.427773215962272690e+00
1.200000000000000000e+01 2.549101142672238307e+00
1.300000000000000000e+01 2.669095505742494989e+00
1.400000000000000000e+01 2.788011399660040635e+00
1.500000000000000000e+01 2.902199654982980714e+00
1.600000000000000000e+01 3.013118010743327080e+00
1.700000000000000000e+01 3.121307466050507795e+00
1.800000000000000000e+01 3.231144424337352827e+00
1.900000000000000000e+01 3.338568153383803860e+00
2.000000000000000000e+01 3.444270331524757367e+00
2.100000000000000000e+01 3.550037925058370902e+00
2.200000000000000000e+01 3.654169319284250594e+00
2.300000000000000000e+01 3.759963990402368950e+00
2.400000000000000000e+01 3.862687736516155379e+00
2.500000000000000000e+01 3.964838023221415764e+00
2.600000000000000000e+01 4.065889960797279379e+00
2.700000000000000000e+01 4.164906451271693122e+00
2.800000000000000000e+01 4.265349137315041617e+00
2.900000000000000000e+01 4.364909424144627792e+00
3.000000000000000000e+01 4.460481372832560076e+00
3.100000000000000000e+01 4.556862980320913969e+00
3.200000000000000000e+01 4.651387808968259208e+00
3.300000000000000000e+01 4.743996751921899069e+00
3.400000000000000000e+01 4.838376119895421823e+00
3.500000000000000000e+01 4.932167767095942956e+00
3.600000000000000000e+01 5.025707934033219360e+00
3.700000000000000000e+01 5.117959093490330069e+00
3.800000000000000000e+01 5.207249054529857979e+00
3.900000000000000000e+01 5.299167664437504754e+00
4.000000000000000000e+01 5.389141675392948194e+00
4.100000000000000000e+01 5.477662038450996640e+00
4.200000000000000000e+01 5.567962946221111764e+00
4.300000000000000000e+01 5.658194491083442301e+00
4.400000000000000000e+01 5.747397196825926535e+00
4.500000000000000000e+01 5.837102839613938166e+00
4.600000000000000000e+01 5.925893658208642556e+00
4.700000000000000000e+01 6.011615876716494888e+00
4.800000000000000000e+01 6.099667060464562418e+00
4.900000000000000000e+01 6.188475933007495655e+00
5.000000000000000000e+01 6.274804225403488367e+00
5.100000000000000000e+01 6.362067044220100165e+00
5.200000000000000000e+01 6.448996257207699756e+00
5.300000000000000000e+01 6.535652668946480226e+00
5.400000000000000000e+01 6.623746134120291451e+00
5.500000000000000000e+01 6.709294380189227525e+00
5.600000000000000000e+01 6.797308632591442468e+00
5.700000000000000000e+01 6.884529963977563227e+00
5.800000000000000000e+01 6.972864711756147749e+00
5.900000000000000000e+01 7.059403855826087870e+00
6.000000000000000000e+01 7.146196298233437716e+00
6.100000000000000000e+01 7.234160234603216111e+00
6.200000000000000000e+01 7.319485833433165389e+00
6.300000000000000000e+01 7.406665450715975929e+00
6.400000000000000000e+01 7.490331720956068473e+00
6.500000000000000000e+01 7.574299041165306612e+00
6.600000000000000000e+01 7.658946041899938884e+00
6.700000000000000000e+01 7.744082321307195649e+00
6.800000000000000000e+01 7.825919903100614583e+00
6.900000000000000000e+01 7.908880092397846617e+00
7.000000000000000000e+01 7.993297373079837342e+00
7.100000000000000000e+01 8.078212884275430383e+00
7.200000000000000000e+01 8.160121199501396916e+00
7.300000000000000000e+01 8.243009555628061591e+00
7.400000000000000000e+01 8.326795062282615234e+00
7.500000000000000000e+01 8.409873843227991586e+00
7.600000000000000000e+01 8.491555383296942594e+00
7.700000000000000000e+01 8.574401731512374170e+00
7.800000000000000000e+01 8.656647695003309551e+00
7.900000000000000000e+01 8.739024039018779888e+00
8.000000000000000000e+01 8.819832336945767182e+00
8.100000000000000000e+01 8.899916696540925543e+00
8.200000000000000000e+01 8.980124624459634219e+00
8.300000000000000000e+01 9.063862791250796747e+00
8.400000000000000000e+01 9.145778521668951555e+00
8.500000000000000000e+01 9.227270908448607756e+00
8.600000000000000000e+01 9.308428452384214680e+00
8.700000000000000000e+01 9.388210275383572778e+00
8.800000000000000000e+01 9.467671676837079886e+00
8.900000000000000000e+01 9.548530674601993340e+00
9.000000000000000000e+01 9.628385060312528054e+00
9.100000000000000000e+01 9.706821898027653717e+00
9.200000000000000000e+01 9.787584633313089810e+00
9.300000000000000000e+01 9.867293747637178924e+00
9.400000000000000000e+01 9.947256212334115943e+00
9.500000000000000000e+01 1.002822352820044749e+01
9.600000000000000000e+01 1.010848988323119357e+01
9.700000000000000000e+01 1.019151050899808375e+01
9.800000000000000000e+01 1.027224471320915455e+01
9.900000000000000000e+01 1.035179722194092022e+01
1.000000000000000000e+02 1.043058246242069309e+01
1.010000000000000000e+02 1.051167336590128798e+01
1.020000000000000000e+02 1.059127860916653141e+01
1.030000000000000000e+02 1.067270301323132209e+01
1.040000000000000000e+02 1.075107377958360644e+01
1.050000000000000000e+02 1.083045375860485571e+01
1.060000000000000000e+02 1.090999545644471347e+01
1.070000000000000000e+02 1.098863530118779153e+01
1.080000000000000000e+02 1.106821021689222029e+01
1.090000000000000000e+02 1.114919920517014162e+01
1.100000000000000000e+02 1.122780168370571197e+01
1.110000000000000000e+02 1.130668998031672778e+01
1.120000000000000000e+02 1.138544236225112449e+01
1.130000000000000000e+02 1.146456688604436458e+01
1.140000000000000000e+02 1.154374905607505575e+01
1.150000000000000000e+02 1.162186410417253057e+01
1.160000000000000000e+02 1.169935316921736934e+01
1.170000000000000000e+02 1.177788015182892245e+01
1.180000000000000000e+02 1.185791948971866994e+01
1.190000000000000000e+02 1.193686884021597017e+01
1.200000000000000000e+02 1.201531455363140388e+01
1.210000000000000000e+02 1.209449468741229339e+01
1.220000000000000000e+02 1.217373927235867370e+01
1.230000000000000000e+02 1.225095092669130459e+01
1.240000000000000000e+02 1.232960903766709571e+01
1.250000000000000000e+02 1.240700159243256273e+01
1.260000000000000000e+02 1.248620847439718773e+01
1.270000000000000000e+02 1.256419627573114006e+01
1.280000000000000000e+02 1.264235947185141207e+01
1.290000000000000000e+02 1.272202016495677412e+01
1.300000000000000000e+02 1.280010184674348217e+01
1.310000000000000000e+02 1.287807727100287458e+01
1.320000000000000000e+02 1.295879344206678674e+01
1.330000000000000000e+02 1.303582234513495486e+01
1.340000000000000000e+02 1.311175004816629119e+01
1.350000000000000000e+02 1.318954757582512549e+01
1.360000000000000000e+02 1.326732932897262351e+01
1.370000000000000000e+02 1.334573106016085298e+01
1.380000000000000000e+02 1.342470035782040405e+01
1.390000000000000000e+02 1.350268711880781325e+01
1.400000000000000000e+02 1.358039289455207133e+01
1.410000000000000000e+02 1.365704540426671620e+01
1.420000000000000000e+02 1.373654197099499186e+01
1.430000000000000000e+02 1.381508005363275693e+01
1.440000000000000000e+02 1.389154348927387694e+01
1.450000000000000000e+02 1.396994990242934875e+01
1.460000000000000000e+02 1.404802740011930418e+01
1.470000000000000000e+02 1.412390657963995899e+01
1.480000000000000000e+02 1.420227926037737376e+01
1.490000000000000000e+02 1.428016827100763386e+01
1.500000000000000000e+02 1.435630599109243555e+01
1.510000000000000000e+02 1.443385462982706891e+01
1.520000000000000000e+02 1.451275908587530772e+01
1.530000000000000000e+02 1.459176974057874077e+01
1.540000000000000000e+02 1.466925764567071333e+01
1.550000000000000000e+02 1.474532382884909509e+01
1.560000000000000000e+02 1.482164742931075807e+01
1.570000000000000000e+02 1.489716191396428968e+01
1.580000000000000000e+02 1.497187958114342798e+01
1.590000000000000000e+02 1.504745894512584847e+01
1.600000000000000000e+02 1.512624334602709375e+01
1.610000000000000000e+02 1.520382824580127057e+01
1.620000000000000000e+02 1.528059910902243423e+01
1.630000000000000000e+02 1.535757480126635777e+01
1.640000000000000000e+02 1.543191966975289553e+01
1.650000000000000000e+02 1.550960886003787920e+01
1.660000000000000000e+02 1.558479103409319499e+01
1.670000000000000000e+02 1.566133166801461130e+01
1.680000000000000000e+02 1.573641378643960387e+01
1.690000000000000000e+02 1.581218862549475546e+01
1.700000000000000000e+02 1.588922068981571378e+01
1.710000000000000000e+02 1.596486075601798227e+01
1.720000000000000000e+02 1.604188533446271592e+01
1.730000000000000000e+02 1.611923125137639090e+01
1.740000000000000000e+02 1.619551502394423537e+01
1.750000000000000000e+02 1.627142958763130309e+01
1.760000000000000000e+02 1.634913558266617173e+01
1.770000000000000000e+02 1.642557114038245558e+01
1.780000000000000000e+02 1.650011581847076059e+01
1.790000000000000000e+02 1.657532643889794954e+01
1.800000000000000000e+02 1.665134356579110531e+01
1.810000000000000000e+02 1.672754759838368344e+01
1.820000000000000000e+02 1.680314291620566891e+01
1.830000000000000000e+02 1.687858680511537912e+01
1.840000000000000000e+02 1.695267780776690003e+01
1.850000000000000000e+02 1.702656448056084670e+01
1.860000000000000000e+02 1.710291956134286906e+01
1.870000000000000000e+02 1.717936046376837211e+01
1.880000000000000000e+02 1.725160219547244367e+01
1.890000000000000000e+02 1.732630009044401120e+01
1.900000000000000000e+02 1.740261555543235161e+01
1.910000000000000000e+02 1.747681043324100969e+01
1.920000000000000000e+02 1.755117907015911172e+01
1.930000000000000000e+02 1.762719923475519934e+01
1.940000000000000000e+02 1.770108310341768387e+01
1.950000000000000000e+02 1.777589491484593509e+01
1.960000000000000000e+02 1.784977126779503109e+01
1.970000000000000000e+02 1.792433832514670300e+01
1.980000000000000000e+02 1.799990263024547588e+01
1.990000000000000000e+02 1.807407045286049296e+01
2.000000000000000000e+02 1.814905992861104167e+01
2.010000000000000000e+02 1.822426619888055654e+01
2.020000000000000000e+02 1.829888728664974806e+01
2.030000000000000000e+02 1.837332318580628865e+01
2.040000000000000000e+02 1.844957053612526110e+01
2.050000000000000000e+02 1.852164452167041375e+01
2.060000000000000000e+02 1.859665169421758080e+01
2.070000000000000000e+02 1.867023468428968513e+01
2.080000000000000000e+02 1.874662337429824888e+01
2.090000000000000000e+02 1.882104483062975220e+01
2.100000000000000000e+02 1.889655901734088772e+01
2.110000000000000000e+02 1.897285236810341402e+01
2.120000000000000000e+02 1.904803801229870075e+01
2.130000000000000000e+02 1.912432243871152693e+01
2.140000000000000000e+02 1.920206146639082334e+01
2.150000000000000000e+02 1.927900535535758664e+01
2.160000000000000000e+02 1.935688263935247377e+01
2.170000000000000000e+02 1.943297875476689640e+01
2.180000000000000000e+02 1.951047870348440938e+01
2.190000000000000000e+02 1.958595452909518642e+01
2.200000000000000000e+02 1.966098998095857908e+01
2.210000000000000000e+02 1.973878917772480790e+01
2.220000000000000000e+02 1.981465233396786019e+01
2.230000000000000000e+02 1.989315443431020114e+01
2.240000000000000000e+02 1.996867657017874365e+01
2.250000000000000000e+02 2.004290954074894771e+01
2.260000000000000000e+02 2.011671520233826627e+01
2.270000000000000000e+02 2.019112667842662390e+01
2.280000000000000000e+02 2.026591244034606731e+01
2.290000000000000000e+02 2.034189118160501053e+01
2.300000000000000000e+02 2.041920105204662406e+01
2.310000000000000000e+02 2.049355590392643833e+01
2.320000000000000000e+02 2.056693568952295337e+01
2.330000000000000000e+02 2.064072653039225358e+01
2.340000000000000000e+02 2.071443281657040814e+01
2.350000000000000000e+02 2.078886382756828866e+01
2.360000000000000000e+02 2.086221048572519621e+01
2.370000000000000000e+02 2.093666667362266409e+01
2.380000000000000000e+02 2.101170878429324418e+01
2.390000000000000000e+02 2.108781508488600664e+01
2.400000000000000000e+02 2.116402603587770770e+01
2.410000000000000000e+02 2.123933758437172870e+01
2.420000000000000000e+02 2.131340904361071509e+01
2.430000000000000000e+02 2.138858381910329243e+01
2.440000000000000000e+02 2.146229487044537976e+01
2.450000000000000000e+02 2.153601988727360705e+01
2.460000000000000000e+02 2.161214732802258354e+01
2.470000000000000000e+02 2.168667887706558872e+01
2.480000000000000000e+02 2.176206460074444848e+01
2.490000000000000000e+02 2.183858217277291303e+01
2.500000000000000000e+02 2.191486979327120466e+01
2.510000000000000000e+02 2.199024342537416032e+01
2.520000000000000000e+02 2.206458517723462975e+01
2.530000000000000000e+02 2.213865416846039125e+01
2.540000000000000000e+02 2.221546673927513282e+01
2.550000000000000000e+02 2.229146579504328329e+01
2.560000000000000000e+02 2.236707819667756780e+01
2.570000000000000000e+02 2.244248860173732396e+01
2.580000000000000000e+02 2.251498675420778639e+01
2.590000000000000000e+02 2.259005366881112664e+01
2.600000000000000000e+02 2.266490985428640670e+01
2.610000000000000000e+02 2.274064345716066171e+01
2.620000000000000000e+02 2.281317680313983587e+01
2.630000000000000000e+02 2.288846043380577910e+01
2.640000000000000000e+02 2.296301518442807321e+01
2.650000000000000000e+02 2.303653166620931714e+01
2.660000000000000000e+02 2.311057572114720315e+01
2.670000000000000000e+02 2.318441719540965096e+01
2.680000000000000000e+02 2.325994794500515539e+01
2.690000000000000000e+02 2.333283989080385368e+01
2.700000000000000000e+02 2.340838277981544024e+01
2.710000000000000000e+02 2.348347364208252941e+01
2.720000000000000000e+02 2.355812957314831735e+01
2.730000000000000000e+02 2.363318949399898727e+01
2.740000000000000000e+02 2.370666662913830791e+01
2.750000000000000000e+02 2.377880225111353241e+01
2.760000000000000000e+02 2.385200162599737794e+01
2.770000000000000000e+02 2.392431750467135387e+01
2.780000000000000000e+02 2.399842480817380874e+01
2.790000000000000000e+02 2.407319978856437004e+01
2.800000000000000000e+02 2.414642180377191849e+01
2.810000000000000000e+02 2.421992479815498100e+01
2.820000000000000000e+02 2.429351197160309539e+01
2.830000000000000000e+02 2.436767001294644430e+01
2.840000000000000000e+02 2.444175265028924215e+01
2.850000000000000000e+02 2.451506999974374779e+01
2.860000000000000000e+02 2.459040883627887908e+01
2.870000000000000000e+02 2.466488409075131472e+01
2.880000000000000000e+02 2.473974431987587153e+01
2.890000000000000000e+02 2.481347837060922146e+01
2.900000000000000000e+02 2.488858606196264489e+01
2.910000000000000000e+02 2.496440405779817340e+01
2.920000000000000000e+02 2.503728131149482294e+01
2.930000000000000000e+02 2.511050905431583757e+01
2.940000000000000000e+02 2.518674553595788268e+01
2.950000000000000000e+02 2.525836541934124924e+01
2.960000000000000000e+02 2.533267769290984006e+01
2.970000000000000000e+02 2.540982539867119172e+01
2.980000000000000000e+02 2.548314695704331712e+01
2.990000000000000000e+02 2.555705084006013905e+01
3.000000000000000000e+02 2.563198796054005513e+01
3.010000000000000000e+02 2.571011608369663648e+01
3.020000000000000000e+02 2.578628374870920936e+01
3.030000000000000000e+02 2.586137274802355179e+01
3.040000000000000000e+02 2.593418358541645219e+01
3.050000000000000000e+02 2.600880935116412118e+01
3.060000000000000000e+02 2.608480915446449444e+01
3.070000000000000000e+02 2.616080708171304181e+01
3.080000000000000000e+02 2.623436113831714422e+01
3.090000000000000000e+02 2.631047789312374263e+01
3.100000000000000000e+02 2.638563366321797332e+01
3.110000000000000000e+02 2.646018335179219250e+01
3.120000000000000000e+02 2.653641423097140262e+01
3.130000000000000000e+02 2.661287358272470271e+01
3.140000000000000000e+02 2.668906815639914143e+01
3.150000000000000000e+02 2.676498602998874432e+01
3.160000000000000000e+02 2.684102026678078801e+01
3.170000000000000000e+02 2.691518741721043284e+01
3.180000000000000000e+02 2.699057351720252029e+01
3.190000000000000000e+02 2.706506418284453730e+01
3.200000000000000000e+02 2.713777124374304250e+01
3.210000000000000000e+02 2.721205893149513955e+01
3.220000000000000000e+02 2.728468117123463799e+01
3.230000000000000000e+02 2.735939504791019772e+01
3.240000000000000000e+02 2.743398716389367920e+01
3.250000000000000000e+02 2.750933388004912317e+01
3.260000000000000000e+02 2.758526466837273006e+01
3.270000000000000000e+02 2.766020781354398039e+01
3.280000000000000000e+02 2.773377119398746515e+01
3.290000000000000000e+02 2.780953952568530596e+01
3.300000000000000000e+02 2.788407584369722159e+01
3.310000000000000000e+02 2.795966973702421754e+01
3.320000000000000000e+02 2.803417404271240443e+01
3.330000000000000000e+02 2.810844723808928691e+01
3.340000000000000000e+02 2.818308536813182741e+01
3.350000000000000000e+02 2.825934008382277440e+01
3.360000000000000000e+02 2.833572507049718681e+01
3.370000000000000000e+02 2.841034057058373818e+01
3.380000000000000000e+02 2.848424954156969591e+01
3.390000000000000000e+02 2.856013470747585714e+01
3.400000000000000000e+02 2.863391439047503084e+01
3.410000000000000000e+02 2.870935456356250270e+01
3.420000000000000000e+02 2.878478674889036881e+01
3.430000000000000000e+02 2.886025373136137162e+01
3.440000000000000000e+02 2.893624039494178035e+01
3.450000000000000000e+02 2.901246559958078919e+01
3.460000000000000000e+02 2.908719875790953324e+01
3.470000000000000000e+02 2.916237412005342478e+01
3.480000000000000000e+02 2.923913325859491508e+01
3.490000000000000000e+02 2.931604113104796738e+01
3.500000000000000000e+02 2.939443122886957482e+01
3.510000000000000000e+02 2.947056539072050896e+01
3.520000000000000000e+02 2.954804384581361987e+01
3.530000000000000000e+02 2.962661168675879253e+01
3.540000000000000000e+02 2.970524891439658077e+01
3.550000000000000000e+02 2.978057345822275082e+01
3.560000000000000000e+02 2.985802190283548896e+01
3.570000000000000000e+02 2.993390458947385468e+01
3.580000000000000000e+02 3.000975520410979058e+01
3.590000000000000000e+02 3.008492327140259803e+01
3.600000000000000000e+02 3.016242234527273069e+01
3.610000000000000000e+02 3.023954899064513668e+01
3.620000000000000000e+02 3.031508698864940854e+01
3.630000000000000000e+02 3.039178021390636886e+01
3.640000000000000000e+02 3.046710915026330113e+01
3.650000000000000000e+02 3.054159844949894520e+01
3.660000000000000000e+02 3.061567393816159210e+01
3.670000000000000000e+02 3.069267612167059767e+01
3.680000000000000000e+02 3.076607850060260319e+01
3.690000000000000000e+02 3.084368748087607059e+01
3.700000000000000000e+02 3.091859476936006956e+01
3.710000000000000000e+02 3.099454857803766572e+01
3.720000000000000000e+02 3.107053452941288185e+01
3.730000000000000000e+02 3.114634804056536765e+01
3.740000000000000000e+02 3.122093885274535197e+01
3.750000000000000000e+02 3.129810913196286037e+01
3.760000000000000000e+02 3.137460451938274275e+01
3.770000000000000000e+02 3.145127265527663951e+01
3.780000000000000000e+02 3.152755121954341178e+01
3.790000000000000000e+02 3.160191048676196246e+01
3.800000000000000000e+02 3.167768493621023751e+01
3.810000000000000000e+02 3.175336654899777500e+01
3.820000000000000000e+02 3.183007643418230614e+01
3.830000000000000000e+02 3.190690212380561164e+01
3.840000000000000000e+02 3.198316261918091641e+01
3.850000000000000000e+02 3.206153433059147773e+01
3.860000000000000000e+02 3.213886658503157179e+01
3.870000000000000000e+02 3.221685231893213341e+01
3.880000000000000000e+02 3.229412587602309515e+01
3.890000000000000000e+02 3.237163714857802432e+01
3.900000000000000000e+02 3.245054630198631429e+01
3.910000000000000000e+02 3.252744899214895469e+01
3.920000000000000000e+02 3.260448497717811733e+01
3.930000000000000000e+02 3.268202568439797773e+01
3.940000000000000000e+02 3.276101874447714835e+01
3.950000000000000000e+02 3.284049947100515254e+01
3.960000000000000000e+02 3.291782265844469890e+01
3.970000000000000000e+02 3.299669285924193218e+01
3.980000000000000000e+02 3.307355010367667347e+01
