# time (ps)	msd (A2)
0.000000000000000000e+00 3.430578593199840043e-04
1.000000000000000000e+00 7.880961340696014394e-01
2.000000000000000000e+00 1.039350611458075280e+00
3.000000000000000000e+00 1.243047745531652426e+00
4.000000000000000000e+00 1.422567714545885265e+00
5.000000000000000000e+00 1.582671435965434137e+00
6.000000000000000000e+00 1.735608748550359293e+00
7.000000000000000000e+00 1.879335016661526581e+00
8.000000000000000000e+00 2.016929297226446760e+00
9.000000000000000000e+00 2.150011926571260723e+00
1.000000000000000000e+01 2.274640203373089697e+00
1.100000000000000000e+01 2.396837952932117766e+00
1.200000000000000000e+01 2.514439298709222559e+00
1.300000000000000000e+01 2.631281115331409293e+00
1.400000000000000000e+01 2.745487648889334054e+00
1.500000000000000000e+01 2.856672304865790935e+00
1.600000000000000000e+01 2.964115825462075637e+00
1.700000000000000000e+01 3.067406873534039846e+00
1.800000000000000000e+01 3.172696256155036476e+00
1.900000000000000000e+01 3.275336419557181244e+00
2.000000000000000000e+01 3.377146188175753405e+00
2.100000000000000000e+01 3.477557658511456484e+00
2.200000000000000000e+01 3.577639925732894355e+00
2.300000000000000000e+01 3.679813452363022375e+00
2.400000000000000000e+01 3.780625697316814637e+00
2.500000000000000000e+01 3.878297841492726494e+00
2.600000000000000000e+01 3.976098116408164795e+00
2.700000000000000000e+01 4.071892326766636927e+00
2.800000000000000000e+01 4.168887173157252768e+00
2.900000000000000000e+01 4.264724512332498385e+00
3.000000000000000000e+01 4.355910086373900647e+00
3.100000000000000000e+01 4.448202616828414335e+00
3.200000000000000000e+01 4.539499642612832453e+00
3.300000000000000000e+01 4.629288696715367024e+00
3.400000000000000000e+01 4.721723998865997807e+00
3.500000000000000000e+01 4.813164500577814309e+00
3.600000000000000000e+01 4.903870709558121099e+00
3.700000000000000000e+01 4.994243840075410112e+00
3.800000000000000000e+01 5.082694574893820594e+00
3.900000000000000000e+01 5.173746404453134495e+00
4.000000000000000000e+01 5.263098439957563990e+00
4.100000000000000000e+01 5.350133152062589659e+00
4.200000000000000000e+01 5.436506587035366600e+00
4.300000000000000000e+01 5.524978955091287780e+00
4.400000000000000000e+01 5.611322531447895834e+00
4.500000000000000000e+01 5.698806417034515626e+00
4.600000000000000000e+01 5.787128941943630700e+00
4.700000000000000000e+01 5.871488904223885363e+00
4.800000000000000000e+01 5.958682609590021606e+00
4.900000000000000000e+01 6.046925181693706186e+00
5.000000000000000000e+01 6.132882940214257950e+00
5.100000000000000000e+01 6.220576179526159599e+00
5.200000000000000000e+01 6.306679286453764632e+00
5.300000000000000000e+01 6.394430232370194034e+00
5.400000000000000000e+01 6.482326716662792698e+00
5.500000000000000000e+01 6.566068867309301282e+00
5.600000000000000000e+01 6.653812826183110651e+00
5.700000000000000000e+01 6.740897919346544143e+00
5.800000000000000000e+01 6.830066322786173316e+00
5.900000000000000000e+01 6.915092397965127979e+00
6.000000000000000000e+01 7.003097786074628850e+00
6.100000000000000000e+01 7.089582346996125217e+00
6.200000000000000000e+01 7.173336021970624365e+00
6.300000000000000000e+01 7.261475911640217440e+00
6.400000000000000000e+01 7.346691918219892870e+00
6.500000000000000000e+01 7.431666027754467052e+00
6.600000000000000000e+01 7.516462722520646622e+00
6.700000000000000000e+01 7.600821163677729864e+00
6.800000000000000000e+01 7.682668268686632551e+00
6.900000000000000000e+01 7.765520225748886674e+00
7.000000000000000000e+01 7.848431568422415516e+00
7.100000000000000000e+01 7.932720288287451460e+00
7.200000000000000000e+01 8.013232344533733453e+00
7.300000000000000000e+01 8.097027909239187693e+00
7.400000000000000000e+01 8.178970319049575721e+00
7.500000000000000000e+01 8.261316632849428743e+00
7.600000000000000000e+01 8.342889147002376049e+00
7.700000000000000000e+01 8.425201400694293241e+00
7.800000000000000000e+01 8.508223017773319796e+00
7.900000000000000000e+01 8.591357232097482921e+00
8.000000000000000000e+01 8.671376652164799026e+00
8.100000000000000000e+01 8.750649971763003521e+00
8.200000000000000000e+01 8.831279737217627712e+00
8.300000000000000000e+01 8.915286190983163550e+00
8.400000000000000000e+01 8.999368924989347818e+00
8.500000000000000000e+01 9.080802345028265776e+00
8.600000000000000000e+01 9.163464976552981867e+00
8.700000000000000000e+01 9.243753816068013052e+00
8.800000000000000000e+01 9.324267818443374267e+00
8.900000000000000000e+01 9.405852373702735747e+00
9.000000000000000000e+01 9.486134460970367499e+00
9.100000000000000000e+01 9.563988174480158477e+00
9.200000000000000000e+01 9.644521101766629911e+00
9.300000000000000000e+01 9.723808486257487615e+00
9.400000000000000000e+01 9.803237058828200290e+00
9.500000000000000000e+01 9.883859630567679133e+00
9.600000000000000000e+01 9.963980718508976153e+00
9.700000000000000000e+01 1.004737517573771655e+01
9.800000000000000000e+01 1.012878523321963087e+01
9.900000000000000000e+01 1.020756182111710153e+01
1.000000000000000000e+02 1.028735148622058659e+01
1.010000000000000000e+02 1.036834451194622098e+01
1.020000000000000000e+02 1.044784690091495527e+01
1.030000000000000000e+02 1.052821800566501942e+01
1.040000000000000000e+02 1.060636687040249804e+01
1.050000000000000000e+02 1.068508042337385611e+01
1.060000000000000000e+02 1.076586000814477551e+01
1.070000000000000000e+02 1.084200142257302169e+01
1.080000000000000000e+02 1.092151623502410551e+01
1.090000000000000000e+02 1.100367036708305157e+01
1.100000000000000000e+02 1.108268732464814299e+01
1.110000000000000000e+02 1.116163493553907493e+01
1.120000000000000000e+02 1.123901162595643122e+01
1.130000000000000000e+02 1.131820374010655961e+01
1.140000000000000000e+02 1.139620782947851829e+01
1.150000000000000000e+02 1.147365754547589667e+01
1.160000000000000000e+02 1.154951884946036245e+01
1.170000000000000000e+02 1.162585398245864354e+01
1.180000000000000000e+02 1.170415434513648911e+01
1.190000000000000000e+02 1.178317281742035760e+01
1.200000000000000000e+02 1.186129670120839563e+01
1.210000000000000000e+02 1.194010755387047062e+01
1.220000000000000000e+02 1.201753244840087831e+01
1.230000000000000000e+02 1.209549710803280398e+01
1.240000000000000000e+02 1.217449496486237415e+01
1.250000000000000000e+02 1.225251443288292563e+01
1.260000000000000000e+02 1.233014569552741158e+01
1.270000000000000000e+02 1.240864270197589470e+01
1.280000000000000000e+02 1.248645437549245862e+01
1.290000000000000000e+02 1.256484385995715236e+01
1.300000000000000000e+02 1.264027758128347578e+01
1.310000000000000000e+02 1.271548535428123650e+01
1.320000000000000000e+02 1.279478900117938167e+01
1.330000000000000000e+02 1.287038635940016995e+01
1.340000000000000000e+02 1.294475525546091710e+01
1.350000000000000000e+02 1.302150418121472875e+01
1.360000000000000000e+02 1.309835798721502265e+01
1.370000000000000000e+02 1.317615510135760815e+01
1.380000000000000000e+02 1.325531551254626628e+01
1.390000000000000000e+02 1.333328058302109476e+01
1.400000000000000000e+02 1.341186232221715180e+01
1.410000000000000000e+02 1.348707197933000579e+01
1.420000000000000000e+02 1.356447836805794616e+01
1.430000000000000000e+02 1.364230333799258155e+01
1.440000000000000000e+02 1.371844016986241854e+01
1.450000000000000000e+02 1.379526788122526426e+01
1.460000000000000000e+02 1.387227368370424152e+01
1.470000000000000000e+02 1.394921769334492190e+01
1.480000000000000000e+02 1.402538158333142349e+01
1.490000000000000000e+02 1.410114288214293232e+01
1.500000000000000000e+02 1.417667950311542313e+01
1.510000000000000000e+02 1.425228527806048184e+01
1.520000000000000000e+02 1.432990796609733763e+01
1.530000000000000000e+02 1.440839981983798701e+01
1.540000000000000000e+02 1.448219516986909383e+01
1.550000000000000000e+02 1.455647804099415943e+01
1.560000000000000000e+02 1.462883991748992152e+01
1.570000000000000000e+02 1.470221554407418729e+01
1.580000000000000000e+02 1.477530582680040716e+01
1.590000000000000000e+02 1.485058538633703940e+01
1.600000000000000000e+02 1.492632258260683464e+01
1.610000000000000000e+02 1.500246661050739050e+01
1.620000000000000000e+02 1.507740586379726722e+01
1.630000000000000000e+02 1.515409866657693350e+01
1.640000000000000000e+02 1.522674723553996934e+01
1.650000000000000000e+02 1.530301877998868321e+01
1.660000000000000000e+02 1.537557794313201320e+01
1.670000000000000000e+02 1.544997177537112520e+01
1.680000000000000000e+02 1.552438094984580630e+01
1.690000000000000000e+02 1.559896042212222689e+01
1.700000000000000000e+02 1.567507516448160310e+01
1.710000000000000000e+02 1.574820237563450043e+01
1.720000000000000000e+02 1.582312031539320252e+01
1.730000000000000000e+02 1.589869579111172548e+01
1.740000000000000000e+02 1.597438890819432622e+01
1.750000000000000000e+02 1.604820245059609363e+01
1.760000000000000000e+02 1.612516138694545731e+01
1.770000000000000000e+02 1.620123068169859337e+01
1.780000000000000000e+02 1.627506074668940528e+01
1.790000000000000000e+02 1.635079890507238431e+01
1.800000000000000000e+02 1.642711963565551869e+01
1.810000000000000000e+02 1.650275818160008967e+01
1.820000000000000000e+02 1.657975676206843119e+01
1.830000000000000000e+02 1.665360795736230060e+01
1.840000000000000000e+02 1.672893607128450810e+01
1.850000000000000000e+02 1.680154933845768284e+01
1.860000000000000000e+02 1.687775765103870285e+01
1.870000000000000000e+02 1.695344678514633685e+01
1.880000000000000000e+02 1.702603011026434032e+01
1.890000000000000000e+02 1.710101953548986486e+01
1.900000000000000000e+02 1.717768944482301308e+01
1.910000000000000000e+02 1.725292776790790938e+01
1.920000000000000000e+02 1.732583340651660464e+01
1.930000000000000000e+02 1.740026496954386204e+01
1.940000000000000000e+02 1.747555583537793922e+01
1.950000000000000000e+02 1.754882023498362642e+01
1.960000000000000000e+02 1.762257093825764898e+01
1.970000000000000000e+02 1.769543693526033579e+01
1.980000000000000000e+02 1.777065586057809909e+01
1.990000000000000000e+02 1.784344557109200835e+01
2.000000000000000000e+02 1.791928425728708518e+01
2.010000000000000000e+02 1.799410138837328432e+01
2.020000000000000000e+02 1.806753227095491710e+01
2.030000000000000000e+02 1.814065998891308595e+01
2.040000000000000000e+02 1.821603613026366020e+01
2.050000000000000000e+02 1.828755189323232599e+01
2.060000000000000000e+02 1.835956136665002347e+01
2.070000000000000000e+02 1.843125863743975756e+01
2.080000000000000000e+02 1.850868360983466943e+01
2.090000000000000000e+02 1.857956108162107611e+01
2.100000000000000000e+02 1.865372658370058900e+01
2.110000000000000000e+02 1.872854709784118299e+01
2.120000000000000000e+02 1.880401340163034618e+01
2.130000000000000000e+02 1.888129767387254887e+01
2.140000000000000000e+02 1.895881891270474995e+01
2.150000000000000000e+02 1.903508756608407637e+01
2.160000000000000000e+02 1.911118285953780926e+01
2.170000000000000000e+02 1.918756266947072220e+01
2.180000000000000000e+02 1.926374969069873089e+01
2.190000000000000000e+02 1.933995971233691336e+01
2.200000000000000000e+02 1.941460161451167465e+01
2.210000000000000000e+02 1.949234303831750026e+01
2.220000000000000000e+02 1.956537669118326406e+01
2.230000000000000000e+02 1.964384710866489669e+01
2.240000000000000000e+02 1.971782161997932192e+01
2.250000000000000000e+02 1.979099815111759497e+01
2.260000000000000000e+02 1.986270949346637238e+01
2.270000000000000000e+02 1.993646816154333123e+01
2.280000000000000000e+02 2.001014987649246279e+01
2.290000000000000000e+02 2.008513803435971568e+01
2.300000000000000000e+02 2.016164286969962305e+01
2.310000000000000000e+02 2.023522330182704465e+01
2.320000000000000000e+02 2.030813329078769058e+01
2.330000000000000000e+02 2.038098429347204998e+01
2.340000000000000000e+02 2.045621077653798991e+01
2.350000000000000000e+02 2.052953646474363225e+01
2.360000000000000000e+02 2.060034552630175853e+01
2.370000000000000000e+02 2.067473211487085294e+01
2.380000000000000000e+02 2.074724491661786274e+01
2.390000000000000000e+02 2.082168370359817899e+01
2.400000000000000000e+02 2.089587990555725838e+01
2.410000000000000000e+02 2.097047662991385764e+01
2.420000000000000000e+02 2.104324316258715655e+01
2.430000000000000000e+02 2.111672630487990077e+01
2.440000000000000000e+02 2.118951092371609946e+01
2.450000000000000000e+02 2.126341478826828180e+01
2.460000000000000000e+02 2.134068110191667245e+01
2.470000000000000000e+02 2.141384188497287866e+01
2.480000000000000000e+02 2.148770645080522357e+01
2.490000000000000000e+02 2.156327066269401271e+01
2.500000000000000000e+02 2.163886778164122759e+01
2.510000000000000000e+02 2.171418778700718022e+01
2.520000000000000000e+02 2.178613166146156743e+01
2.530000000000000000e+02 2.185839910371218409e+01
2.540000000000000000e+02 2.193322835138300420e+01
2.550000000000000000e+02 2.200960080559962151e+01
2.560000000000000000e+02 2.208303985850002960e+01
2.570000000000000000e+02 2.215604289551120587e+01
2.580000000000000000e+02 2.222716081962048307e+01
2.590000000000000000e+02 2.230094479481068959e+01
2.600000000000000000e+02 2.237435126068465152e+01
2.610000000000000000e+02 2.244857464025617233e+01
2.620000000000000000e+02 2.251786697755167310e+01
2.630000000000000000e+02 2.259177283197034924e+01
2.640000000000000000e+02 2.266420305923375267e+01
2.650000000000000000e+02 2.273513184054695913e+01
2.660000000000000000e+02 2.280828471110721622e+01
2.670000000000000000e+02 2.287843502418690989e+01
2.680000000000000000e+02 2.295322360970847342e+01
2.690000000000000000e+02 2.302424581521587399e+01
2.700000000000000000e+02 2.309974697438424229e+01
2.710000000000000000e+02 2.317262157244293519e+01
2.720000000000000000e+02 2.324660505854061299e+01
2.730000000000000000e+02 2.332103432211685501e+01
2.740000000000000000e+02 2.339463483861562665e+01
2.750000000000000000e+02 2.346393280078523347e+01
2.760000000000000000e+02 2.353609095963219033e+01
2.770000000000000000e+02 2.360617673323858057e+01
2.780000000000000000e+02 2.367936980198366825e+01
2.790000000000000000e+02 2.375223695380991629e+01
2.800000000000000000e+02 2.382396583147503932e+01
2.810000000000000000e+02 2.389543401279609114e+01
2.820000000000000000e+02 2.396920554018581129e+01
2.830000000000000000e+02 2.404293731982865268e+01
2.840000000000000000e+02 2.411697072967378119e+01
2.850000000000000000e+02 2.418846483650327528e+01
2.860000000000000000e+02 2.426366970355395480e+01
2.870000000000000000e+02 2.433634214343112490e+01
2.880000000000000000e+02 2.440925550500991292e+01
2.890000000000000000e+02 2.448177180117150442e+01
2.900000000000000000e+02 2.455349640694747038e+01
2.910000000000000000e+02 2.462768079100003149e+01
2.920000000000000000e+02 2.469814506074798643e+01
2.930000000000000000e+02 2.476985057742163221e+01
2.940000000000000000e+02 2.484340554187328465e+01
2.950000000000000000e+02 2.491212727572766639e+01
2.960000000000000000e+02 2.498410060309157288e+01
2.970000000000000000e+02 2.505896570772462439e+01
2.980000000000000000e+02 2.513031972628866129e+01
2.990000000000000000e+02 2.519950349144463075e+01
3.000000000000000000e+02 2.527114031879628087e+01
3.010000000000000000e+02 2.534631016784140911e+01
3.020000000000000000e+02 2.542028632726862725e+01
3.030000000000000000e+02 2.549209088944317259e+01
3.040000000000000000e+02 2.556271944260901918e+01
3.050000000000000000e+02 2.563728838222267825e+01
3.060000000000000000e+02 2.571162723981597154e+01
3.070000000000000000e+02 2.578525557583528283e+01
3.080000000000000000e+02 2.585761712370459975e+01
3.090000000000000000e+02 2.593081272723827624e+01
3.100000000000000000e+02 2.600246533278922811e+01
3.110000000000000000e+02 2.607573773289378138e+01
3.120000000000000000e+02 2.615114472703479009e+01
3.130000000000000000e+02 2.622503947859631879e+01
3.140000000000000000e+02 2.629913560038908926e+01
3.150000000000000000e+02 2.637341984571340348e+01
3.160000000000000000e+02 2.644771046505239198e+01
3.170000000000000000e+02 2.652106245284922537e+01
3.180000000000000000e+02 2.659619216483004323e+01
3.190000000000000000e+02 2.666689200066890564e+01
3.200000000000000000e+02 2.673714229371432793e+01
3.210000000000000000e+02 2.680839042474849876e+01
3.220000000000000000e+02 2.687834830511496520e+01
3.230000000000000000e+02 2.695182529401362714e+01
3.240000000000000000e+02 2.702241457663447832e+01
3.250000000000000000e+02 2.709389607670554412e+01
3.260000000000000000e+02 2.716632216295653635e+01
3.270000000000000000e+02 2.723755907034788493e+01
3.280000000000000000e+02 2.730734900342388372e+01
3.290000000000000000e+02 2.738088572487684402e+01
3.300000000000000000e+02 2.745142275678090016e+01
3.310000000000000000e+02 2.752574612808392729e+01
3.320000000000000000e+02 2.759779235160293709e+01
3.330000000000000000e+02 2.766822356771565694e+01
3.340000000000000000e+02 2.774014875354002996e+01
3.350000000000000000e+02 2.781308364636479880e+01
3.360000000000000000e+02 2.788633779794949419e+01
3.370000000000000000e+02 2.795911578467370973e+01
3.380000000000000000e+02 2.802911893097138929e+01
3.390000000000000000e+02 2.810151132059859336e+01
3.400000000000000000e+02 2.817226138137036173e+01
3.410000000000000000e+02 2.824383246934905856e+01
3.420000000000000000e+02 2.831616028826855924e+01
3.430000000000000000e+02 2.838897477760223254e+01
3.440000000000000000e+02 2.846240549759659189e+01
3.450000000000000000e+02 2.853820684735153534e+01
3.460000000000000000e+02 2.861055492150334700e+01
3.470000000000000000e+02 2.868523923179531110e+01
3.480000000000000000e+02 2.876083537422459813e+01
3.490000000000000000e+02 2.883785018065331585e+01
3.500000000000000000e+02 2.891503250474342224e+01
3.510000000000000000e+02 2.898756383751444332e+01
3.520000000000000000e+02 2.906212075683943397e+01
3.530000000000000000e+02 2.914075931119929308e+01
3.540000000000000000e+02 2.921811152393031463e+01
3.550000000000000000e+02 2.929071859143617118e+01
3.560000000000000000e+02 2.936732074012111582e+01
3.570000000000000000e+02 2.944156793290900964e+01
3.580000000000000000e+02 2.951544385626738531e+01
3.590000000000000000e+02 2.958900715071722232e+01
3.600000000000000000e+02 2.966673467340400805e+01
3.610000000000000000e+02 2.974303163560099605e+01
3.620000000000000000e+02 2.981780602271679825e+01
3.630000000000000000e+02 2.989263611273313259e+01
3.640000000000000000e+02 2.996688707054258671e+01
3.650000000000000000e+02 3.003950426444320598e+01
3.660000000000000000e+02 3.011152610555225806e+01
3.670000000000000000e+02 3.018887359160497041e+01
3.680000000000000000e+02 3.026203810775535885e+01
3.690000000000000000e+02 3.033562464589781982e+01
3.700000000000000000e+02 3.040756382082207665e+01
3.710000000000000000e+02 3.048175996292339107e+01
3.720000000000000000e+02 3.055630111691974093e+01
3.730000000000000000e+02 3.062991808342291122e+01
3.740000000000000000e+02 3.070277449745930198e+01
3.750000000000000000e+02 3.077855564611651218e+01
3.760000000000000000e+02 3.085303622671614221e+01
3.770000000000000000e+02 3.092769590797480816e+01
3.780000000000000000e+02 3.100140838357556561e+01
3.790000000000000000e+02 3.107543188547552404e+01
3.800000000000000000e+02 3.114945716441100032e+01
3.810000000000000000e+02 3.122285996038548817e+01
3.820000000000000000e+02 3.129876436640336124e+01
3.830000000000000000e+02 3.137290457018627521e+01
3.840000000000000000e+02 3.144761545470526798e+01
3.850000000000000000e+02 3.152304128792067672e+01
3.860000000000000000e+02 3.160005261690623612e+01
3.870000000000000000e+02 3.167655352571069116e+01
3.880000000000000000e+02 3.175280812786924756e+01
3.890000000000000000e+02 3.183106162879561296e+01
3.900000000000000000e+02 3.190924140624818506e+01
3.910000000000000000e+02 3.198543680915424048e+01
3.920000000000000000e+02 3.205958019615125210e+01
3.930000000000000000e+02 3.213572247623422840e+01
3.940000000000000000e+02 3.221445095011791437e+01
3.950000000000000000e+02 3.229138558024508399e+01
3.960000000000000000e+02 3.236711305365527380e+01
3.970000000000000000e+02 3.244441342051000987e+01
3.980000000000000000e+02 3.252103755754843206e+01
