# time (ps)	msd (A2)
0.000000000000000000e+00 3.135152804526316543e-04
1.000000000000000000e+00 7.893205884494088886e-01
2.000000000000000000e+00 1.042331952446435617e+00
3.000000000000000000e+00 1.248462519421493111e+00
4.000000000000000000e+00 1.428568503679857216e+00
5.000000000000000000e+00 1.592070507890950282e+00
6.000000000000000000e+00 1.745251552127185635e+00
7.000000000000000000e+00 1.888027882080852260e+00
8.000000000000000000e+00 2.022944966926071952e+00
9.000000000000000000e+00 2.155448891141803713e+00
1.000000000000000000e+01 2.280236885160306759e+00
1.100000000000000000e+01 2.403578222318287771e+00
1.200000000000000000e+01 2.522512695571094365e+00
1.300000000000000000e+01 2.640174766571244280e+00
1.400000000000000000e+01 2.755613481880497151e+00
1.500000000000000000e+01 2.867753817498889024e+00
1.600000000000000000e+01 2.977959096139869200e+00
1.700000000000000000e+01 3.085670402138294133e+00
1.800000000000000000e+01 3.192649458986412281e+00
1.900000000000000000e+01 3.298830176578879669e+00
2.000000000000000000e+01 3.404208835828512303e+00
2.100000000000000000e+01 3.507722591590129557e+00
2.200000000000000000e+01 3.609217138742252473e+00
2.300000000000000000e+01 3.711926109694162701e+00
2.400000000000000000e+01 3.812403559993194246e+00
2.500000000000000000e+01 3.911907977052610619e+00
2.600000000000000000e+01 4.010727566590236215e+00
2.700000000000000000e+01 4.106534712406085141e+00
2.800000000000000000e+01 4.202325534709049570e+00
2.900000000000000000e+01 4.298188192285490317e+00
3.000000000000000000e+01 4.392417890447603668e+00
3.100000000000000000e+01 4.485657336664252703e+00
3.200000000000000000e+01 4.577171197249867873e+00
3.300000000000000000e+01 4.668587934017977226e+00
3.400000000000000000e+01 4.758343709648323205e+00
3.500000000000000000e+01 4.849348468119827338e+00
3.600000000000000000e+01 4.941313759264558847e+00
3.700000000000000000e+01 5.030424501906104240e+00
3.800000000000000000e+01 5.118389531931243575e+00
3.900000000000000000e+01 5.207247253434123202e+00
4.000000000000000000e+01 5.295337147586483439e+00
4.100000000000000000e+01 5.381147646727536760e+00
4.200000000000000000e+01 5.468684379104412407e+00
4.300000000000000000e+01 5.557073452485409071e+00
4.400000000000000000e+01 5.643294310690960991e+00
4.500000000000000000e+01 5.730794909265706671e+00
4.600000000000000000e+01 5.817855063832233498e+00
4.700000000000000000e+01 5.903698890313683556e+00
4.800000000000000000e+01 5.988899187651296252e+00
4.900000000000000000e+01 6.075712655637651949e+00
5.000000000000000000e+01 6.160756356383346066e+00
5.100000000000000000e+01 6.246026039048003575e+00
5.200000000000000000e+01 6.329944694982645892e+00
5.300000000000000000e+01 6.414867558966963479e+00
5.400000000000000000e+01 6.501158864651416458e+00
5.500000000000000000e+01 6.584296609885545770e+00
5.600000000000000000e+01 6.667964246365194469e+00
5.700000000000000000e+01 6.751275893115251669e+00
5.800000000000000000e+01 6.836277358408323401e+00
5.900000000000000000e+01 6.918699176543479545e+00
6.000000000000000000e+01 7.002907415478007103e+00
6.100000000000000000e+01 7.086399871572898412e+00
6.200000000000000000e+01 7.168104801718576446e+00
6.300000000000000000e+01 7.251326944210755521e+00
6.400000000000000000e+01 7.331556723095687289e+00
6.500000000000000000e+01 7.412101184373645957e+00
6.600000000000000000e+01 7.494912543584714371e+00
6.700000000000000000e+01 7.576857722877536894e+00
6.800000000000000000e+01 7.656212652129757323e+00
6.900000000000000000e+01 7.736300129856405583e+00
7.000000000000000000e+01 7.818685443582054972e+00
7.100000000000000000e+01 7.900136407773345582e+00
7.200000000000000000e+01 7.979099953459900973e+00
7.300000000000000000e+01 8.059676052286929959e+00
7.400000000000000000e+01 8.140824377981006776e+00
7.500000000000000000e+01 8.221601327912399171e+00
7.600000000000000000e+01 8.301693477631042484e+00
7.700000000000000000e+01 8.381813629503932717e+00
7.800000000000000000e+01 8.461467069941003061e+00
7.900000000000000000e+01 8.540529537219848422e+00
8.000000000000000000e+01 8.617445788957182273e+00
8.100000000000000000e+01 8.693556963166129137e+00
8.200000000000000000e+01 8.770586202768289041e+00
8.300000000000000000e+01 8.851305385027236738e+00
8.400000000000000000e+01 8.930893344696459124e+00
8.500000000000000000e+01 9.008615803482186379e+00
8.600000000000000000e+01 9.088094202047004799e+00
8.700000000000000000e+01 9.165735234987957725e+00
8.800000000000000000e+01 9.242639893247485361e+00
8.900000000000000000e+01 9.319432933461500923e+00
9.000000000000000000e+01 9.396770857787368314e+00
9.100000000000000000e+01 9.474600939192084681e+00
9.200000000000000000e+01 9.552872626715940285e+00
9.300000000000000000e+01 9.630352819922800123e+00
9.400000000000000000e+01 9.707533638003758014e+00
9.500000000000000000e+01 9.786597156263333375e+00
9.600000000000000000e+01 9.862928447185774772e+00
9.700000000000000000e+01 9.941351992157075657e+00
9.800000000000000000e+01 1.001883218451878399e+01
9.900000000000000000e+01 1.009693541907155634e+01
1.000000000000000000e+02 1.017464044156433722e+01
1.010000000000000000e+02 1.025450691785674273e+01
1.020000000000000000e+02 1.033286393853668805e+01
1.030000000000000000e+02 1.041262612581580349e+01
1.040000000000000000e+02 1.049077288454224011e+01
1.050000000000000000e+02 1.056692771194494718e+01
1.060000000000000000e+02 1.064560499801933346e+01
1.070000000000000000e+02 1.072349879438063169e+01
1.080000000000000000e+02 1.080051913211823944e+01
1.090000000000000000e+02 1.087988098382364655e+01
1.100000000000000000e+02 1.095837686960390123e+01
1.110000000000000000e+02 1.103496512198486279e+01
1.120000000000000000e+02 1.111348588995527642e+01
1.130000000000000000e+02 1.119068476399970002e+01
1.140000000000000000e+02 1.126873229392040798e+01
1.150000000000000000e+02 1.134581143137950043e+01
1.160000000000000000e+02 1.142434481919108258e+01
1.170000000000000000e+02 1.150262202426721103e+01
1.180000000000000000e+02 1.158240399762179429e+01
1.190000000000000000e+02 1.166156197375679149e+01
1.200000000000000000e+02 1.174005533530678314e+01
1.210000000000000000e+02 1.181891512139297618e+01
1.220000000000000000e+02 1.189743418059910773e+01
1.230000000000000000e+02 1.197359881953311067e+01
1.240000000000000000e+02 1.205212669989918517e+01
1.250000000000000000e+02 1.212912918686049402e+01
1.260000000000000000e+02 1.220766579455753664e+01
1.270000000000000000e+02 1.228474474003492389e+01
1.280000000000000000e+02 1.236293434164089433e+01
1.290000000000000000e+02 1.243924457688487983e+01
1.300000000000000000e+02 1.251504253357408025e+01
1.310000000000000000e+02 1.259053486652288179e+01
1.320000000000000000e+02 1.266820405814644168e+01
1.330000000000000000e+02 1.274374190677441732e+01
1.340000000000000000e+02 1.281865021855840858e+01
1.350000000000000000e+02 1.289363727154176331e+01
1.360000000000000000e+02 1.297031370176026321e+01
1.370000000000000000e+02 1.304524668115012531e+01
1.380000000000000000e+02 1.312212222095176628e+01
1.390000000000000000e+02 1.319712534426066419e+01
1.400000000000000000e+02 1.327264517003366784e+01
1.410000000000000000e+02 1.334812648018750103e+01
1.420000000000000000e+02 1.342550990727852422e+01
1.430000000000000000e+02 1.350098177859788784e+01
1.440000000000000000e+02 1.357615376029628784e+01
1.450000000000000000e+02 1.365342841478540237e+01
1.460000000000000000e+02 1.373012948018626922e+01
1.470000000000000000e+02 1.380560748220143275e+01
1.480000000000000000e+02 1.388230071629328144e+01
1.490000000000000000e+02 1.395940956655168286e+01
1.500000000000000000e+02 1.403505523453092252e+01
1.510000000000000000e+02 1.411136287100128861e+01
1.520000000000000000e+02 1.418912613359616692e+01
1.530000000000000000e+02 1.426753698756616728e+01
1.540000000000000000e+02 1.434288569083116549e+01
1.550000000000000000e+02 1.441873973586869973e+01
1.560000000000000000e+02 1.449390478021912543e+01
1.570000000000000000e+02 1.457038198059311895e+01
1.580000000000000000e+02 1.464446130419109515e+01
1.590000000000000000e+02 1.471944801899022259e+01
1.600000000000000000e+02 1.479816821480036459e+01
1.610000000000000000e+02 1.487420185849187426e+01
1.620000000000000000e+02 1.495061279292072243e+01
1.630000000000000000e+02 1.502751850514107446e+01
1.640000000000000000e+02 1.510282286693611375e+01
1.650000000000000000e+02 1.518047057415086876e+01
1.660000000000000000e+02 1.525556894484065573e+01
1.670000000000000000e+02 1.533176908315185294e+01
1.680000000000000000e+02 1.540667188802641618e+01
1.690000000000000000e+02 1.548174183771644685e+01
1.700000000000000000e+02 1.555805395648648037e+01
1.710000000000000000e+02 1.563230064166421585e+01
1.720000000000000000e+02 1.570871891060529890e+01
1.730000000000000000e+02 1.578641646561918499e+01
1.740000000000000000e+02 1.586113314692971876e+01
1.750000000000000000e+02 1.593674197740842580e+01
1.760000000000000000e+02 1.601103849299028781e+01
1.770000000000000000e+02 1.608798917845155430e+01
1.780000000000000000e+02 1.616276834959070285e+01
1.790000000000000000e+02 1.623603774810085909e+01
1.800000000000000000e+02 1.631110928929694026e+01
1.810000000000000000e+02 1.638614761689698796e+01
1.820000000000000000e+02 1.646301854345604099e+01
1.830000000000000000e+02 1.653756223030130457e+01
1.840000000000000000e+02 1.661210855631100358e+01
1.850000000000000000e+02 1.668772333523186902e+01
1.860000000000000000e+02 1.676250202922267718e+01
1.870000000000000000e+02 1.683913821449824511e+01
1.880000000000000000e+02 1.691141096327401172e+01
1.890000000000000000e+02 1.698609337547337361e+01
1.900000000000000000e+02 1.706211058169892070e+01
1.910000000000000000e+02 1.713560410092342323e+01
1.920000000000000000e+02 1.720924620356531776e+01
1.930000000000000000e+02 1.728333118232397325e+01
1.940000000000000000e+02 1.735608771927375216e+01
1.950000000000000000e+02 1.742920437468427863e+01
1.960000000000000000e+02 1.750305878745705712e+01
1.970000000000000000e+02 1.757629088346904922e+01
1.980000000000000000e+02 1.764884428499255975e+01
1.990000000000000000e+02 1.772196573488909266e+01
2.000000000000000000e+02 1.779584626953229076e+01
2.010000000000000000e+02 1.786857787413593002e+01
2.020000000000000000e+02 1.794178706378943744e+01
2.030000000000000000e+02 1.801539132590274406e+01
2.040000000000000000e+02 1.808951349303866252e+01
2.050000000000000000e+02 1.816172968624338679e+01
2.060000000000000000e+02 1.823631403182488953e+01
2.070000000000000000e+02 1.831159421398676201e+01
2.080000000000000000e+02 1.838542505772506885e+01
2.090000000000000000e+02 1.845875263646360409e+01
2.100000000000000000e+02 1.853415639548456895e+01
2.110000000000000000e+02 1.861085023424849894e+01
2.120000000000000000e+02 1.868727000361607793e+01
2.130000000000000000e+02 1.876259331220204629e+01
2.140000000000000000e+02 1.884130985471125896e+01
2.150000000000000000e+02 1.891716871025701963e+01
2.160000000000000000e+02 1.899292385669509642e+01
2.170000000000000000e+02 1.906865977595130346e+01
2.180000000000000000e+02 1.914506793682307872e+01
2.190000000000000000e+02 1.921985209312047971e+01
2.200000000000000000e+02 1.929415784704183423e+01
2.210000000000000000e+02 1.937100367128114797e+01
2.220000000000000000e+02 1.944580106579615020e+01
2.230000000000000000e+02 1.952279504484083716e+01
2.240000000000000000e+02 1.959779091716309196e+01
2.250000000000000000e+02 1.967319088980061537e+01
2.260000000000000000e+02 1.974702018614081567e+01
2.270000000000000000e+02 1.982071413747886623e+01
2.280000000000000000e+02 1.989627180463469713e+01
2.290000000000000000e+02 1.996980162242551060e+01
2.300000000000000000e+02 2.004624365193559399e+01
2.310000000000000000e+02 2.012157607157420713e+01
2.320000000000000000e+02 2.019404112914546445e+01
2.330000000000000000e+02 2.026685377587106984e+01
2.340000000000000000e+02 2.034108481892951659e+01
2.350000000000000000e+02 2.041432798444712304e+01
2.360000000000000000e+02 2.048839466123126130e+01
2.370000000000000000e+02 2.056193523701680803e+01
2.380000000000000000e+02 2.063476518115906444e+01
2.390000000000000000e+02 2.070938814325464961e+01
2.400000000000000000e+02 2.078348648412014299e+01
2.410000000000000000e+02 2.085617821784643766e+01
2.420000000000000000e+02 2.093027702134836332e+01
2.430000000000000000e+02 2.100433395771593226e+01
2.440000000000000000e+02 2.107822210574454758e+01
2.450000000000000000e+02 2.115129895104461966e+01
2.460000000000000000e+02 2.122554993969671955e+01
2.470000000000000000e+02 2.130050797401877460e+01
2.480000000000000000e+02 2.137301481298648653e+01
2.490000000000000000e+02 2.144797602576898043e+01
2.500000000000000000e+02 2.152338590066345958e+01
2.510000000000000000e+02 2.159605404388596028e+01
2.520000000000000000e+02 2.166833022809456111e+01
2.530000000000000000e+02 2.174126676940976566e+01
2.540000000000000000e+02 2.181604994256188590e+01
2.550000000000000000e+02 2.189072351371410363e+01
2.560000000000000000e+02 2.196429434993585517e+01
2.570000000000000000e+02 2.203758109957091804e+01
2.580000000000000000e+02 2.210977700896501119e+01
2.590000000000000000e+02 2.218432097499483646e+01
2.600000000000000000e+02 2.225878032882330615e+01
2.610000000000000000e+02 2.233446391503974837e+01
2.620000000000000000e+02 2.240797198850660266e+01
2.630000000000000000e+02 2.248328825147503451e+01
2.640000000000000000e+02 2.255714065373667765e+01
2.650000000000000000e+02 2.263043008010349411e+01
2.660000000000000000e+02 2.270378532358172663e+01
2.670000000000000000e+02 2.277830273054092558e+01
2.680000000000000000e+02 2.285159680276956351e+01
2.690000000000000000e+02 2.292409988377712793e+01
2.700000000000000000e+02 2.299962267890684586e+01
2.710000000000000000e+02 2.307383528085968649e+01
2.720000000000000000e+02 2.314926140485734507e+01
2.730000000000000000e+02 2.322362452652117781e+01
2.740000000000000000e+02 2.329662487816991856e+01
2.750000000000000000e+02 2.337125053457199542e+01
2.760000000000000000e+02 2.344577108674466714e+01
2.770000000000000000e+02 2.351945360463325940e+01
2.780000000000000000e+02 2.359410382733617340e+01
2.790000000000000000e+02 2.366869937734990614e+01
2.800000000000000000e+02 2.374204106367557188e+01
2.810000000000000000e+02 2.381653299020063130e+01
2.820000000000000000e+02 2.389093203766077522e+01
2.830000000000000000e+02 2.396691975690086451e+01
2.840000000000000000e+02 2.404090274631991520e+01
2.850000000000000000e+02 2.411494722779821487e+01
2.860000000000000000e+02 2.419031264734743658e+01
2.870000000000000000e+02 2.426501803078650710e+01
2.880000000000000000e+02 2.433990442203043969e+01
2.890000000000000000e+02 2.441565738256589313e+01
2.900000000000000000e+02 2.449164094390714652e+01
2.910000000000000000e+02 2.456815614082482568e+01
2.920000000000000000e+02 2.464250488404693229e+01
2.930000000000000000e+02 2.471714963739411886e+01
2.940000000000000000e+02 2.479505012156313271e+01
2.950000000000000000e+02 2.486744080882148111e+01
2.960000000000000000e+02 2.494201059161203560e+01
2.970000000000000000e+02 2.501854470274811959e+01
2.980000000000000000e+02 2.509187166433317984e+01
2.990000000000000000e+02 2.516453278755705369e+01
3.000000000000000000e+02 2.523942703044881242e+01
3.010000000000000000e+02 2.531627200388033927e+01
3.020000000000000000e+02 2.539229855187459961e+01
3.030000000000000000e+02 2.546772416855155896e+01
3.040000000000000000e+02 2.554165720158028918e+01
3.050000000000000000e+02 2.561653419307731028e+01
3.060000000000000000e+02 2.569186729510160561e+01
3.070000000000000000e+02 2.576891692329741090e+01
3.080000000000000000e+02 2.584422308444586136e+01
3.090000000000000000e+02 2.592080623171011666e+01
3.100000000000000000e+02 2.599727238214081027e+01
3.110000000000000000e+02 2.607353081689136687e+01
3.120000000000000000e+02 2.615019108872193598e+01
3.130000000000000000e+02 2.622791789073940905e+01
3.140000000000000000e+02 2.630470314508396612e+01
3.150000000000000000e+02 2.638079128452912769e+01
3.160000000000000000e+02 2.645580875739325677e+01
3.170000000000000000e+02 2.652954216242538266e+01
3.180000000000000000e+02 2.660353699930512050e+01
3.190000000000000000e+02 2.667785102360601357e+01
3.200000000000000000e+02 2.675101966393897257e+01
3.210000000000000000e+02 2.682591912806659806e+01
3.220000000000000000e+02 2.690056742675227142e+01
3.230000000000000000e+02 2.697674266248342789e+01
3.240000000000000000e+02 2.705230096128544304e+01
3.250000000000000000e+02 2.712798436016940684e+01
3.260000000000000000e+02 2.720289635397970684e+01
3.270000000000000000e+02 2.727908221026189040e+01
3.280000000000000000e+02 2.735415997897615625e+01
3.290000000000000000e+02 2.743027778528957583e+01
3.300000000000000000e+02 2.750446657371485060e+01
3.310000000000000000e+02 2.757974065823175636e+01
3.320000000000000000e+02 2.765370065969669966e+01
3.330000000000000000e+02 2.772866899377374850e+01
3.340000000000000000e+02 2.780333432197348387e+01
3.350000000000000000e+02 2.787931752948348318e+01
3.360000000000000000e+02 2.795605679508261332e+01
3.370000000000000000e+02 2.803142812427882191e+01
3.380000000000000000e+02 2.810472138436428580e+01
3.390000000000000000e+02 2.817962117580001902e+01
3.400000000000000000e+02 2.825312430319383949e+01
3.410000000000000000e+02 2.832739912904171220e+01
3.420000000000000000e+02 2.840286977047349026e+01
3.430000000000000000e+02 2.847900790736369459e+01
3.440000000000000000e+02 2.855420832142168663e+01
3.450000000000000000e+02 2.862682881240142763e+01
3.460000000000000000e+02 2.870078559677977736e+01
3.470000000000000000e+02 2.877558275734498849e+01
3.480000000000000000e+02 2.885084119626192134e+01
3.490000000000000000e+02 2.892610520353342451e+01
3.500000000000000000e+02 2.900093112248491778e+01
3.510000000000000000e+02 2.907439202520363963e+01
3.520000000000000000e+02 2.915062512783661930e+01
3.530000000000000000e+02 2.922761382380189232e+01
3.540000000000000000e+02 2.930324325588413714e+01
3.550000000000000000e+02 2.937813337247180812e+01
3.560000000000000000e+02 2.945242698019858452e+01
3.570000000000000000e+02 2.952805389987872786e+01
3.580000000000000000e+02 2.960085078309330342e+01
3.590000000000000000e+02 2.967579574842091006e+01
3.600000000000000000e+02 2.975267678242698466e+01
3.610000000000000000e+02 2.982635615088562986e+01
3.620000000000000000e+02 2.990151408668722866e+01
3.630000000000000000e+02 2.997632285233452265e+01
3.640000000000000000e+02 3.005293373386387046e+01
3.650000000000000000e+02 3.012533738604321343e+01
3.660000000000000000e+02 3.019934468399472394e+01
3.670000000000000000e+02 3.027650331110232784e+01
3.680000000000000000e+02 3.034961970217679195e+01
3.690000000000000000e+02 3.042629416901415595e+01
3.700000000000000000e+02 3.050065995987132794e+01
3.710000000000000000e+02 3.057644372546029743e+01
3.720000000000000000e+02 3.065091435474888115e+01
3.730000000000000000e+02 3.072573595885978293e+01
3.740000000000000000e+02 3.080002168852000821e+01
3.750000000000000000e+02 3.087506010356982600e+01
3.760000000000000000e+02 3.095108990266784588e+01
3.770000000000000000e+02 3.102751652817436323e+01
3.780000000000000000e+02 3.110362038407577145e+01
3.790000000000000000e+02 3.117760307877187032e+01
3.800000000000000000e+02 3.125344685482598095e+01
3.810000000000000000e+02 3.132761952378126225e+01
3.820000000000000000e+02 3.140457232497355733e+01
3.830000000000000000e+02 3.148097547470758073e+01
3.840000000000000000e+02 3.155536382507858661e+01
3.850000000000000000e+02 3.163137987612735813e+01
3.860000000000000000e+02 3.170799898440829168e+01
3.870000000000000000e+02 3.178289812502521272e+01
3.880000000000000000e+02 3.185858247484909000e+01
3.890000000000000000e+02 3.193498764676014545e+01
3.900000000000000000e+02 3.201352839535448425e+01
3.910000000000000000e+02 3.208958642649614745e+01
3.920000000000000000e+02 3.216517406918647026e+01
3.930000000000000000e+02 3.224358403840207643e+01
3.940000000000000000e+02 3.231973835737267109e+01
3.950000000000000000e+02 3.239763155702249975e+01
3.960000000000000000e+02 3.247369314054169109e+01
3.970000000000000000e+02 3.255250653885930490e+01
3.980000000000000000e+02 3.262966913181515594e+01
