# time (ps)	msd (pm2)
0.000000000000000000e+00 3.467474242402346363e-04
1.000000000000000000e+00 7.846671812404550916e-01
2.000000000000000000e+00 1.035060783217514935e+00
3.000000000000000000e+00 1.236475485285952969e+00
4.000000000000000000e+00 1.414181529486227884e+00
5.000000000000000000e+00 1.572853236366530627e+00
6.000000000000000000e+00 1.723375856105097803e+00
7.000000000000000000e+00 1.862676365199506634e+00
8.000000000000000000e+00 1.996923491859511568e+00
9.000000000000000000e+00 2.129280639226019733e+00
1.000000000000000000e+01 2.251106062530973784e+00
1.100000000000000000e+01 2.371759552939864069e+00
1.200000000000000000e+01 2.487353429871522525e+00
1.300000000000000000e+01 2.601699366672177050e+00
1.400000000000000000e+01 2.712855269954401294e+00
1.500000000000000000e+01 2.822675075542381951e+00
1.600000000000000000e+01 2.929481401466119461e+00
1.700000000000000000e+01 3.031609899994482493e+00
1.800000000000000000e+01 3.135345983113928980e+00
1.900000000000000000e+01 3.236768803057150201e+00
2.000000000000000000e+01 3.336434346617157765e+00
2.100000000000000000e+01 3.434492596461628189e+00
2.200000000000000000e+01 3.532163076219656972e+00
2.300000000000000000e+01 3.634194042089485599e+00
2.400000000000000000e+01 3.735470565452254199e+00
2.500000000000000000e+01 3.831907674867442104e+00
2.600000000000000000e+01 3.929795558457998439e+00
2.700000000000000000e+01 4.022883351544748187e+00
2.800000000000000000e+01 4.118750579217517860e+00
2.900000000000000000e+01 4.213302935703747920e+00
3.000000000000000000e+01 4.302599918884613572e+00
3.100000000000000000e+01 4.392929616851896313e+00
3.200000000000000000e+01 4.482780572954329301e+00
3.300000000000000000e+01 4.571638815217395013e+00
3.400000000000000000e+01 4.662736642343877413e+00
3.500000000000000000e+01 4.753721285648381034e+00
3.600000000000000000e+01 4.844882485394414573e+00
3.700000000000000000e+01 4.935056443037479035e+00
3.800000000000000000e+01 5.023591548113962801e+00
3.900000000000000000e+01 5.114062011393087026e+00
4.000000000000000000e+01 5.203290948693838125e+00
4.100000000000000000e+01 5.289729460668790573e+00
4.200000000000000000e+01 5.373751040073055485e+00
4.300000000000000000e+01 5.462502033298049398e+00
4.400000000000000000e+01 5.546360662665866137e+00
4.500000000000000000e+01 5.632015477964048777e+00
4.600000000000000000e+01 5.720049756287643561e+00
4.700000000000000000e+01 5.803805692115981962e+00
4.800000000000000000e+01 5.888900149023263531e+00
4.900000000000000000e+01 5.977792323631530458e+00
5.000000000000000000e+01 6.063557091337872684e+00
5.100000000000000000e+01 6.152304442302376053e+00
5.200000000000000000e+01 6.237893064314684821e+00
5.300000000000000000e+01 6.327382806401041115e+00
5.400000000000000000e+01 6.416370705565278776e+00
5.500000000000000000e+01 6.498206954261576129e+00
5.600000000000000000e+01 6.584139776919066378e+00
5.700000000000000000e+01 6.670402511474213370e+00
5.800000000000000000e+01 6.759300676795253260e+00
5.900000000000000000e+01 6.843435097002477541e+00
6.000000000000000000e+01 6.932570788959321995e+00
6.100000000000000000e+01 7.018564315681900645e+00
6.200000000000000000e+01 7.101733703644079299e+00
6.300000000000000000e+01 7.190861478511102689e+00
6.400000000000000000e+01 7.276702477246084655e+00
6.500000000000000000e+01 7.362456589836573251e+00
6.600000000000000000e+01 7.449448751750316511e+00
6.700000000000000000e+01 7.534248933431607398e+00
6.800000000000000000e+01 7.617437705054443065e+00
6.900000000000000000e+01 7.700325420613131300e+00
7.000000000000000000e+01 7.783094727727754680e+00
7.100000000000000000e+01 7.867576377504427398e+00
7.200000000000000000e+01 7.947040007120945049e+00
7.300000000000000000e+01 8.032231026650375583e+00
7.400000000000000000e+01 8.113733909340085759e+00
7.500000000000000000e+01 8.196559732288175582e+00
7.600000000000000000e+01 8.278866919582670292e+00
7.700000000000000000e+01 8.361841135518483625e+00
7.800000000000000000e+01 8.445781175731555734e+00
7.900000000000000000e+01 8.530186341735603861e+00
8.000000000000000000e+01 8.609727606621826013e+00
8.100000000000000000e+01 8.688193566618132024e+00
8.200000000000000000e+01 8.770405854282049773e+00
8.300000000000000000e+01 8.855257744395464314e+00
8.400000000000000000e+01 8.941502081245467082e+00
8.500000000000000000e+01 9.022956798835398473e+00
8.600000000000000000e+01 9.108901754395823502e+00
8.700000000000000000e+01 9.190856492444057224e+00
8.800000000000000000e+01 9.272196891513056372e+00
8.900000000000000000e+01 9.355529308591378879e+00
9.000000000000000000e+01 9.436248854242203166e+00
9.100000000000000000e+01 9.515732101099526830e+00
9.200000000000000000e+01 9.597380791809310807e+00
9.300000000000000000e+01 9.677140292507036889e+00
9.400000000000000000e+01 9.758186259307858990e+00
9.500000000000000000e+01 9.839868063873121073e+00
9.600000000000000000e+01 9.919607389941532460e+00
9.700000000000000000e+01 1.000449097441248192e+01
9.800000000000000000e+01 1.008679741454933598e+01
9.900000000000000000e+01 1.016678990268722949e+01
1.000000000000000000e+02 1.024941528793107182e+01
1.010000000000000000e+02 1.033116771122240962e+01
1.020000000000000000e+02 1.041167304805351712e+01
1.030000000000000000e+02 1.049258491723218611e+01
1.040000000000000000e+02 1.057325358587496922e+01
1.050000000000000000e+02 1.065133605501266345e+01
1.060000000000000000e+02 1.073539799138918127e+01
1.070000000000000000e+02 1.081228905110901550e+01
1.080000000000000000e+02 1.089367201287406850e+01
1.090000000000000000e+02 1.097866010527585523e+01
1.100000000000000000e+02 1.105967673620696701e+01
1.110000000000000000e+02 1.114057029306292002e+01
1.120000000000000000e+02 1.121953377609033531e+01
1.130000000000000000e+02 1.130017777988198624e+01
1.140000000000000000e+02 1.138000768515104610e+01
1.150000000000000000e+02 1.145879771748792031e+01
1.160000000000000000e+02 1.153709227036774010e+01
1.170000000000000000e+02 1.161533507954355038e+01
1.180000000000000000e+02 1.169513149944979169e+01
1.190000000000000000e+02 1.177750174588626919e+01
1.200000000000000000e+02 1.185768995300907136e+01
1.210000000000000000e+02 1.194034832937932933e+01
1.220000000000000000e+02 1.201945164735275462e+01
1.230000000000000000e+02 1.209900930359983917e+01
1.240000000000000000e+02 1.218210343287896791e+01
1.250000000000000000e+02 1.226228863176373807e+01
1.260000000000000000e+02 1.234046309440478417e+01
1.270000000000000000e+02 1.242206353479486225e+01
1.280000000000000000e+02 1.250243802298396112e+01
1.290000000000000000e+02 1.258100828073083477e+01
1.300000000000000000e+02 1.265726445055720184e+01
1.310000000000000000e+02 1.273165387624708345e+01
1.320000000000000000e+02 1.281210923558011672e+01
1.330000000000000000e+02 1.288708575728656847e+01
1.340000000000000000e+02 1.296269326537851896e+01
1.350000000000000000e+02 1.303966943268812173e+01
1.360000000000000000e+02 1.311887844371835676e+01
1.370000000000000000e+02 1.319644347426791064e+01
1.380000000000000000e+02 1.327805726747412152e+01
1.390000000000000000e+02 1.335764141209252465e+01
1.400000000000000000e+02 1.343890038037701373e+01
1.410000000000000000e+02 1.351527714525304980e+01
1.420000000000000000e+02 1.359369335475050988e+01
1.430000000000000000e+02 1.367265702228200119e+01
1.440000000000000000e+02 1.375056080669504688e+01
1.450000000000000000e+02 1.382887844712542069e+01
1.460000000000000000e+02 1.390834288670333407e+01
1.470000000000000000e+02 1.398847159615547397e+01
1.480000000000000000e+02 1.406511741418175809e+01
1.490000000000000000e+02 1.414240047998692518e+01
1.500000000000000000e+02 1.421943458055070408e+01
1.510000000000000000e+02 1.429607679544052345e+01
1.520000000000000000e+02 1.437544933502652711e+01
1.530000000000000000e+02 1.445832336323179312e+01
1.540000000000000000e+02 1.453126019082141340e+01
1.550000000000000000e+02 1.460809928686579084e+01
1.560000000000000000e+02 1.467970758121855468e+01
1.570000000000000000e+02 1.475440298477983525e+01
1.580000000000000000e+02 1.482965618918105655e+01
1.590000000000000000e+02 1.490651457362704768e+01
1.600000000000000000e+02 1.498559204762702457e+01
1.610000000000000000e+02 1.506286567208662497e+01
1.620000000000000000e+02 1.514076597742087316e+01
1.630000000000000000e+02 1.522141796431681016e+01
1.640000000000000000e+02 1.529638418656848486e+01
1.650000000000000000e+02 1.537543336357722268e+01
1.660000000000000000e+02 1.544964222167489432e+01
1.670000000000000000e+02 1.552649026758800588e+01
1.680000000000000000e+02 1.560338736525865322e+01
1.690000000000000000e+02 1.567940227307553513e+01
1.700000000000000000e+02 1.575815630479121232e+01
1.710000000000000000e+02 1.583255114047790713e+01
1.720000000000000000e+02 1.590994883347445743e+01
1.730000000000000000e+02 1.598949173347383379e+01
1.740000000000000000e+02 1.606820073863650222e+01
1.750000000000000000e+02 1.614393061660632966e+01
1.760000000000000000e+02 1.622233617852493381e+01
1.770000000000000000e+02 1.630142687354667075e+01
1.780000000000000000e+02 1.637746436286141005e+01
1.790000000000000000e+02 1.645559275965669599e+01
1.800000000000000000e+02 1.653418013841459810e+01
1.810000000000000000e+02 1.661233296930783965e+01
1.820000000000000000e+02 1.669398919097401901e+01
1.830000000000000000e+02 1.676962965376261039e+01
1.840000000000000000e+02 1.684890269243151550e+01
1.850000000000000000e+02 1.692459453205790965e+01
1.860000000000000000e+02 1.700364353440169296e+01
1.870000000000000000e+02 1.708233993226321701e+01
1.880000000000000000e+02 1.715704079838715046e+01
1.890000000000000000e+02 1.723607308408460881e+01
1.900000000000000000e+02 1.731726705260030030e+01
1.910000000000000000e+02 1.739618094107236601e+01
1.920000000000000000e+02 1.747081532444149232e+01
1.930000000000000000e+02 1.754777331547395036e+01
1.940000000000000000e+02 1.762622252534838196e+01
1.950000000000000000e+02 1.770106146703915329e+01
1.960000000000000000e+02 1.777847935968429027e+01
1.970000000000000000e+02 1.785322425954713310e+01
1.980000000000000000e+02 1.793182311018311026e+01
1.990000000000000000e+02 1.800633471778506234e+01
2.000000000000000000e+02 1.808558081588681787e+01
2.010000000000000000e+02 1.816149525766687844e+01
2.020000000000000000e+02 1.823717895793082988e+01
2.030000000000000000e+02 1.831294162873089348e+01
2.040000000000000000e+02 1.839072711178571495e+01
2.050000000000000000e+02 1.846587733445288038e+01
2.060000000000000000e+02 1.853877564688486146e+01
2.070000000000000000e+02 1.861335088851699027e+01
2.080000000000000000e+02 1.869362109999715571e+01
2.090000000000000000e+02 1.876600843244112582e+01
2.100000000000000000e+02 1.884204170997550776e+01
2.110000000000000000e+02 1.891980854827322744e+01
2.120000000000000000e+02 1.900024795217397866e+01
2.130000000000000000e+02 1.908025490028375870e+01
2.140000000000000000e+02 1.916264779880066271e+01
2.150000000000000000e+02 1.924206108139786053e+01
2.160000000000000000e+02 1.931901794343934853e+01
2.170000000000000000e+02 1.940071234637641950e+01
2.180000000000000000e+02 1.947814096590600741e+01
2.190000000000000000e+02 1.955787567533885252e+01
2.200000000000000000e+02 1.963547952002391739e+01
2.210000000000000000e+02 1.971686890898182298e+01
2.220000000000000000e+02 1.979135725403287438e+01
2.230000000000000000e+02 1.987200660454220014e+01
2.240000000000000000e+02 1.994982139382117126e+01
2.250000000000000000e+02 2.002656153777114412e+01
2.260000000000000000e+02 2.010217845060071795e+01
2.270000000000000000e+02 2.017936741029935632e+01
2.280000000000000000e+02 2.025727023322659193e+01
2.290000000000000000e+02 2.033272576146996968e+01
2.300000000000000000e+02 2.041286957073691255e+01
2.310000000000000000e+02 2.049060452015866574e+01
2.320000000000000000e+02 2.056597578536430504e+01
2.330000000000000000e+02 2.064197281925279981e+01
2.340000000000000000e+02 2.072234769669799803e+01
2.350000000000000000e+02 2.079848372707844106e+01
2.360000000000000000e+02 2.087161870468380442e+01
2.370000000000000000e+02 2.094967186685565252e+01
2.380000000000000000e+02 2.102354358201988660e+01
2.390000000000000000e+02 2.110006659750698788e+01
2.400000000000000000e+02 2.117588705406039651e+01
2.410000000000000000e+02 2.125331385614596513e+01
2.420000000000000000e+02 2.132921448148737298e+01
2.430000000000000000e+02 2.140498905368011151e+01
2.440000000000000000e+02 2.148039933630895959e+01
2.450000000000000000e+02 2.155782173902066390e+01
2.460000000000000000e+02 2.163932028640067529e+01
2.470000000000000000e+02 2.171554629053719765e+01
2.480000000000000000e+02 2.178994095288341981e+01
2.490000000000000000e+02 2.186908542947226408e+01
2.500000000000000000e+02 2.194788826117443747e+01
2.510000000000000000e+02 2.202588920304443931e+01
2.520000000000000000e+02 2.209931320989518255e+01
2.530000000000000000e+02 2.217501188379541333e+01
2.540000000000000000e+02 2.225218323684553923e+01
2.550000000000000000e+02 2.233216845064099587e+01
2.560000000000000000e+02 2.240787230900038551e+01
2.570000000000000000e+02 2.248263184240015988e+01
2.580000000000000000e+02 2.255668178734119067e+01
2.590000000000000000e+02 2.263409994108651802e+01
2.600000000000000000e+02 2.270982463240425631e+01
2.610000000000000000e+02 2.278747595511446988e+01
2.620000000000000000e+02 2.285932052504442424e+01
2.630000000000000000e+02 2.293590376696201361e+01
2.640000000000000000e+02 2.301081721626919574e+01
2.650000000000000000e+02 2.308467721059149369e+01
2.660000000000000000e+02 2.315988673379125373e+01
2.670000000000000000e+02 2.323391902554959998e+01
2.680000000000000000e+02 2.331172052491710645e+01
2.690000000000000000e+02 2.338646797719934156e+01
2.700000000000000000e+02 2.346698330216002049e+01
2.710000000000000000e+02 2.354234632812097772e+01
2.720000000000000000e+02 2.362049508329457481e+01
2.730000000000000000e+02 2.369876863224186536e+01
2.740000000000000000e+02 2.377700964784119719e+01
2.750000000000000000e+02 2.385116326853827928e+01
2.760000000000000000e+02 2.392763974494219070e+01
2.770000000000000000e+02 2.400076881752870150e+01
2.780000000000000000e+02 2.407743485006243489e+01
2.790000000000000000e+02 2.415443482134534037e+01
2.800000000000000000e+02 2.422951494105812387e+01
2.810000000000000000e+02 2.430465043282593740e+01
2.820000000000000000e+02 2.438332705422386226e+01
2.830000000000000000e+02 2.446235741137012454e+01
2.840000000000000000e+02 2.454041593660995346e+01
2.850000000000000000e+02 2.461549915838294211e+01
2.860000000000000000e+02 2.469502374610692996e+01
2.870000000000000000e+02 2.477084826901563730e+01
2.880000000000000000e+02 2.484831575317733510e+01
2.890000000000000000e+02 2.492546740162324781e+01
2.900000000000000000e+02 2.500083511218752008e+01
2.910000000000000000e+02 2.507946285233536443e+01
2.920000000000000000e+02 2.515272363445226134e+01
2.930000000000000000e+02 2.522819537452802408e+01
2.940000000000000000e+02 2.530398579934654535e+01
2.950000000000000000e+02 2.537546033069002505e+01
2.960000000000000000e+02 2.545116064764626884e+01
2.970000000000000000e+02 2.552881357200205059e+01
2.980000000000000000e+02 2.560261847661441337e+01
2.990000000000000000e+02 2.567223694812687640e+01
3.000000000000000000e+02 2.574636006987313053e+01
3.010000000000000000e+02 2.582316897602415651e+01
3.020000000000000000e+02 2.589939372481858726e+01
3.030000000000000000e+02 2.597338681911489644e+01
3.040000000000000000e+02 2.604675726915679945e+01
3.050000000000000000e+02 2.612513683129601461e+01
3.060000000000000000e+02 2.620195376460233661e+01
3.070000000000000000e+02 2.627911733155989182e+01
3.080000000000000000e+02 2.635409332780224290e+01
3.090000000000000000e+02 2.642988006206974916e+01
3.100000000000000000e+02 2.650411073882471058e+01
3.110000000000000000e+02 2.658087426402485676e+01
3.120000000000000000e+02 2.665918211801759341e+01
3.130000000000000000e+02 2.673651233582607389e+01
3.140000000000000000e+02 2.681403321842871179e+01
3.150000000000000000e+02 2.689068926449800756e+01
3.160000000000000000e+02 2.696694936765250006e+01
3.170000000000000000e+02 2.704313792268138883e+01
3.180000000000000000e+02 2.712075999616445188e+01
3.190000000000000000e+02 2.719286349111560241e+01
3.200000000000000000e+02 2.726554803829987605e+01
3.210000000000000000e+02 2.733875418731750884e+01
3.220000000000000000e+02 2.741063093119563021e+01
3.230000000000000000e+02 2.748731940320680422e+01
3.240000000000000000e+02 2.756011022091028195e+01
3.250000000000000000e+02 2.763242138963091676e+01
3.260000000000000000e+02 2.770516339146284324e+01
3.270000000000000000e+02 2.777808427467481422e+01
3.280000000000000000e+02 2.784956905489167767e+01
3.290000000000000000e+02 2.792453276381405658e+01
3.300000000000000000e+02 2.799509443410111587e+01
3.310000000000000000e+02 2.807119237029500525e+01
3.320000000000000000e+02 2.814390193393258599e+01
3.330000000000000000e+02 2.821582025898018387e+01
3.340000000000000000e+02 2.829005059830883440e+01
3.350000000000000000e+02 2.836516606082785685e+01
3.360000000000000000e+02 2.843917612981953269e+01
3.370000000000000000e+02 2.851517320931550969e+01
3.380000000000000000e+02 2.858706224956645769e+01
3.390000000000000000e+02 2.866049495208772413e+01
3.400000000000000000e+02 2.873159706203805541e+01
3.410000000000000000e+02 2.880284522143581327e+01
3.420000000000000000e+02 2.887730568159535594e+01
3.430000000000000000e+02 2.895231219000137912e+01
3.440000000000000000e+02 2.902586811503967823e+01
3.450000000000000000e+02 2.910213166082796832e+01
3.460000000000000000e+02 2.917471359113389795e+01
3.470000000000000000e+02 2.925052565245674785e+01
3.480000000000000000e+02 2.932756012678753876e+01
3.490000000000000000e+02 2.940568829877076595e+01
3.500000000000000000e+02 2.948211505236787389e+01
3.510000000000000000e+02 2.955340661966968696e+01
3.520000000000000000e+02 2.962737481572222364e+01
3.530000000000000000e+02 2.970850549674808150e+01
3.540000000000000000e+02 2.978415409331310926e+01
3.550000000000000000e+02 2.985646791832028413e+01
3.560000000000000000e+02 2.993340298620729811e+01
3.570000000000000000e+02 3.000871124021445269e+01
3.580000000000000000e+02 3.008083239696218314e+01
3.590000000000000000e+02 3.015497612111469650e+01
3.600000000000000000e+02 3.023404653622377580e+01
3.610000000000000000e+02 3.030990823854148886e+01
3.620000000000000000e+02 3.038577688530790866e+01
3.630000000000000000e+02 3.045966683129583430e+01
3.640000000000000000e+02 3.053577016545083112e+01
3.650000000000000000e+02 3.060651073379781906e+01
3.660000000000000000e+02 3.067943835247533002e+01
3.670000000000000000e+02 3.075903164368907738e+01
3.680000000000000000e+02 3.083293634712712716e+01
3.690000000000000000e+02 3.090655435213295377e+01
3.700000000000000000e+02 3.097855387363403423e+01
3.710000000000000000e+02 3.105359003298707776e+01
3.720000000000000000e+02 3.112877761996749726e+01
3.730000000000000000e+02 3.120285131386350486e+01
3.740000000000000000e+02 3.127730068341626435e+01
3.750000000000000000e+02 3.135310395534366990e+01
3.760000000000000000e+02 3.142785005209033500e+01
3.770000000000000000e+02 3.150331026491791775e+01
3.780000000000000000e+02 3.157891611369722540e+01
3.790000000000000000e+02 3.165519450991785533e+01
3.800000000000000000e+02 3.173030457182572306e+01
3.810000000000000000e+02 3.180493658724795480e+01
3.820000000000000000e+02 3.188306524438734257e+01
3.830000000000000000e+02 3.195787060361353227e+01
3.840000000000000000e+02 3.203350474987647800e+01
3.850000000000000000e+02 3.210916974494385556e+01
3.860000000000000000e+02 3.218904772021819127e+01
3.870000000000000000e+02 3.226496482824393297e+01
3.880000000000000000e+02 3.234189437827769353e+01
3.890000000000000000e+02 3.242109774319983728e+01
3.900000000000000000e+02 3.250033245132449622e+01
3.910000000000000000e+02 3.257793465702533808e+01
3.920000000000000000e+02 3.265143808214580190e+01
3.930000000000000000e+02 3.272988872785008851e+01
3.940000000000000000e+02 3.280966228624516390e+01
3.950000000000000000e+02 3.288646071037921104e+01
3.960000000000000000e+02 3.296316296014165914e+01
3.970000000000000000e+02 3.304243146811553800e+01
3.980000000000000000e+02 3.312055696460205212e+01
