# time (ps)	msd (A2)
0.000000000000000000e+00 3.323202978641352019e-04
1.000000000000000000e+00 7.854499813234762096e-01
2.000000000000000000e+00 1.035900253010622718e+00
3.000000000000000000e+00 1.240653075145355944e+00
4.000000000000000000e+00 1.418288713349729946e+00
5.000000000000000000e+00 1.579061475551652549e+00
6.000000000000000000e+00 1.730281947498561790e+00
7.000000000000000000e+00 1.869981715331510808e+00
8.000000000000000000e+00 2.002316825050930671e+00
9.000000000000000000e+00 2.133115089115915186e+00
1.000000000000000000e+01 2.254127429846453090e+00
1.100000000000000000e+01 2.373526365636402069e+00
1.200000000000000000e+01 2.488348273344634709e+00
1.300000000000000000e+01 2.603021385648140562e+00
1.400000000000000000e+01 2.713324192265179402e+00
1.500000000000000000e+01 2.821777859221016538e+00
1.600000000000000000e+01 2.928432420251115165e+00
1.700000000000000000e+01 3.031929719249170319e+00
1.800000000000000000e+01 3.133056598494264211e+00
1.900000000000000000e+01 3.234428082447364350e+00
2.000000000000000000e+01 3.337735038341858029e+00
2.100000000000000000e+01 3.435992053624803422e+00
2.200000000000000000e+01 3.533212414162135939e+00
2.300000000000000000e+01 3.629357101220146209e+00
2.400000000000000000e+01 3.725212476135453699e+00
2.500000000000000000e+01 3.818827915780401039e+00
2.600000000000000000e+01 3.912075885944245268e+00
2.700000000000000000e+01 4.004157824257312370e+00
2.800000000000000000e+01 4.092976561885005360e+00
2.900000000000000000e+01 4.182703625242972123e+00
3.000000000000000000e+01 4.273093289093275793e+00
3.100000000000000000e+01 4.361064329491609826e+00
3.200000000000000000e+01 4.447785488834553824e+00
3.300000000000000000e+01 4.536120942405497125e+00
3.400000000000000000e+01 4.620646534893922741e+00
3.500000000000000000e+01 4.706969117555014570e+00
3.600000000000000000e+01 4.794070584184505712e+00
3.700000000000000000e+01 4.878362053944890420e+00
3.800000000000000000e+01 4.964078556476448689e+00
3.900000000000000000e+01 5.049589975506419748e+00
4.000000000000000000e+01 5.135296875608360345e+00
4.100000000000000000e+01 5.217508060009467208e+00
4.200000000000000000e+01 5.300704999764277225e+00
4.300000000000000000e+01 5.385213799688457925e+00
4.400000000000000000e+01 5.468078627959990889e+00
4.500000000000000000e+01 5.552981495408515933e+00
4.600000000000000000e+01 5.638130938846802387e+00
4.700000000000000000e+01 5.723338143526166100e+00
4.800000000000000000e+01 5.806929324530247349e+00
4.900000000000000000e+01 5.890531485016193614e+00
5.000000000000000000e+01 5.974113051050360390e+00
5.100000000000000000e+01 6.056765906405749966e+00
5.200000000000000000e+01 6.137362384142735827e+00
5.300000000000000000e+01 6.219907438380313458e+00
5.400000000000000000e+01 6.303108188822558411e+00
5.500000000000000000e+01 6.383935239749663815e+00
5.600000000000000000e+01 6.464797102994656264e+00
5.700000000000000000e+01 6.544885185494254465e+00
5.800000000000000000e+01 6.627657262081444678e+00
5.900000000000000000e+01 6.705340340362560880e+00
6.000000000000000000e+01 6.787047017679078031e+00
6.100000000000000000e+01 6.865079652249716169e+00
6.200000000000000000e+01 6.942176276867994211e+00
6.300000000000000000e+01 7.021413331758890486e+00
6.400000000000000000e+01 7.099131363472937828e+00
6.500000000000000000e+01 7.176479752089041320e+00
6.600000000000000000e+01 7.255409696660527707e+00
6.700000000000000000e+01 7.332944197064537484e+00
6.800000000000000000e+01 7.408484330377110183e+00
6.900000000000000000e+01 7.485555105801760867e+00
7.000000000000000000e+01 7.564544550121511612e+00
7.100000000000000000e+01 7.641711246066305030e+00
7.200000000000000000e+01 7.717382189863530861e+00
7.300000000000000000e+01 7.795157785145739204e+00
7.400000000000000000e+01 7.872265360155853209e+00
7.500000000000000000e+01 7.949528502779497074e+00
7.600000000000000000e+01 8.027187563090278033e+00
7.700000000000000000e+01 8.103385461853227056e+00
7.800000000000000000e+01 8.180303609690474431e+00
7.900000000000000000e+01 8.255539118861497272e+00
8.000000000000000000e+01 8.328252601730602223e+00
8.100000000000000000e+01 8.400386910158282205e+00
8.200000000000000000e+01 8.473076776770515295e+00
8.300000000000000000e+01 8.550199825123740993e+00
8.400000000000000000e+01 8.627465414788245468e+00
8.500000000000000000e+01 8.701337681288292103e+00
8.600000000000000000e+01 8.777359698035716917e+00
8.700000000000000000e+01 8.851701058900738772e+00
8.800000000000000000e+01 8.926275178194497784e+00
8.900000000000000000e+01 8.997979956533107782e+00
9.000000000000000000e+01 9.072791662648214128e+00
9.100000000000000000e+01 9.147802330189655606e+00
9.200000000000000000e+01 9.222237398529648189e+00
9.300000000000000000e+01 9.296594824579178962e+00
9.400000000000000000e+01 9.368842709687827508e+00
9.500000000000000000e+01 9.444598453388007187e+00
9.600000000000000000e+01 9.517231174985582243e+00
9.700000000000000000e+01 9.589942343380938539e+00
9.800000000000000000e+01 9.663947994509181072e+00
9.900000000000000000e+01 9.738610133808245806e+00
1.000000000000000000e+02 9.813403642797391413e+00
1.010000000000000000e+02 9.891188416580947163e+00
1.020000000000000000e+02 9.967191412516706706e+00
1.030000000000000000e+02 1.004369731926681375e+01
1.040000000000000000e+02 1.011887836484729597e+01
1.050000000000000000e+02 1.019177269841523525e+01
1.060000000000000000e+02 1.026754110804960618e+01
1.070000000000000000e+02 1.034144078042270642e+01
1.080000000000000000e+02 1.041397828762617372e+01
1.090000000000000000e+02 1.049004418619725243e+01
1.100000000000000000e+02 1.056684828488569572e+01
1.110000000000000000e+02 1.063924986135149986e+01
1.120000000000000000e+02 1.071457653123082743e+01
1.130000000000000000e+02 1.078846545624180742e+01
1.140000000000000000e+02 1.086237444949669673e+01
1.150000000000000000e+02 1.093641202787781452e+01
1.160000000000000000e+02 1.101192872850040771e+01
1.170000000000000000e+02 1.108585663025031032e+01
1.180000000000000000e+02 1.116214620662942991e+01
1.190000000000000000e+02 1.123823015603609043e+01
1.200000000000000000e+02 1.131438501275847308e+01
1.210000000000000000e+02 1.138870764632297927e+01
1.220000000000000000e+02 1.146300306592987361e+01
1.230000000000000000e+02 1.153728069814937918e+01
1.240000000000000000e+02 1.161192182130996109e+01
1.250000000000000000e+02 1.168699542285797399e+01
1.260000000000000000e+02 1.176274293697074036e+01
1.270000000000000000e+02 1.183631879776449658e+01
1.280000000000000000e+02 1.191162046757992776e+01
1.290000000000000000e+02 1.198312826303968137e+01
1.300000000000000000e+02 1.205317208567094234e+01
1.310000000000000000e+02 1.212423202335541284e+01
1.320000000000000000e+02 1.219628999893795473e+01
1.330000000000000000e+02 1.226952608479269280e+01
1.340000000000000000e+02 1.234061758632754824e+01
1.350000000000000000e+02 1.241151832117461318e+01
1.360000000000000000e+02 1.248380627628696971e+01
1.370000000000000000e+02 1.255489797042585565e+01
1.380000000000000000e+02 1.262741748388113194e+01
1.390000000000000000e+02 1.269779620485536675e+01
1.400000000000000000e+02 1.276932881502047756e+01
1.410000000000000000e+02 1.284102896524852788e+01
1.420000000000000000e+02 1.291319925393244894e+01
1.430000000000000000e+02 1.298375310363341839e+01
1.440000000000000000e+02 1.305554007507461023e+01
1.450000000000000000e+02 1.312861434003721683e+01
1.460000000000000000e+02 1.320040864083907728e+01
1.470000000000000000e+02 1.327336559565731910e+01
1.480000000000000000e+02 1.334568866431290779e+01
1.490000000000000000e+02 1.341836787538703568e+01
1.500000000000000000e+02 1.349142291255711434e+01
1.510000000000000000e+02 1.356351024302887787e+01
1.520000000000000000e+02 1.363710069260985769e+01
1.530000000000000000e+02 1.371001077041902683e+01
1.540000000000000000e+02 1.378038623923767325e+01
1.550000000000000000e+02 1.385168860916174083e+01
1.560000000000000000e+02 1.392248695557802307e+01
1.570000000000000000e+02 1.399646823662619965e+01
1.580000000000000000e+02 1.406611891051509389e+01
1.590000000000000000e+02 1.413863434677577935e+01
1.600000000000000000e+02 1.421090285513319351e+01
1.610000000000000000e+02 1.428281477430936519e+01
1.620000000000000000e+02 1.435407311797023944e+01
1.630000000000000000e+02 1.442666677658649199e+01
1.640000000000000000e+02 1.449891667887789026e+01
1.650000000000000000e+02 1.457232762462612641e+01
1.660000000000000000e+02 1.464306948608405001e+01
1.670000000000000000e+02 1.471432811342872604e+01
1.680000000000000000e+02 1.478589073760658401e+01
1.690000000000000000e+02 1.485762499561230321e+01
1.700000000000000000e+02 1.492966055751352705e+01
1.710000000000000000e+02 1.499873338208356977e+01
1.720000000000000000e+02 1.506995894959710824e+01
1.730000000000000000e+02 1.514227027723520003e+01
1.740000000000000000e+02 1.521181332372312056e+01
1.750000000000000000e+02 1.528309906414010300e+01
1.760000000000000000e+02 1.535179241601421296e+01
1.770000000000000000e+02 1.542587056598871875e+01
1.780000000000000000e+02 1.549796219275728681e+01
1.790000000000000000e+02 1.556742766889389706e+01
1.800000000000000000e+02 1.563959057990810209e+01
1.810000000000000000e+02 1.571038343091894696e+01
1.820000000000000000e+02 1.578527558766359640e+01
1.830000000000000000e+02 1.585553711133384525e+01
1.840000000000000000e+02 1.592783094722571313e+01
1.850000000000000000e+02 1.600082185419950065e+01
1.860000000000000000e+02 1.607103670343533608e+01
1.870000000000000000e+02 1.614410913948920623e+01
1.880000000000000000e+02 1.621463695774466984e+01
1.890000000000000000e+02 1.628555255695383508e+01
1.900000000000000000e+02 1.635710188957885691e+01
1.910000000000000000e+02 1.642726193010827984e+01
1.920000000000000000e+02 1.649698575540412548e+01
1.930000000000000000e+02 1.656502051875132153e+01
1.940000000000000000e+02 1.663489837711963659e+01
1.950000000000000000e+02 1.670319792260479019e+01
1.960000000000000000e+02 1.677323755615505974e+01
1.970000000000000000e+02 1.684155472761823447e+01
1.980000000000000000e+02 1.690737192046725923e+01
1.990000000000000000e+02 1.697634698845614665e+01
2.000000000000000000e+02 1.704656038052985423e+01
2.010000000000000000e+02 1.711533086959044070e+01
2.020000000000000000e+02 1.718368513825837951e+01
2.030000000000000000e+02 1.725251462928819635e+01
2.040000000000000000e+02 1.732123106256840828e+01
2.050000000000000000e+02 1.738939678115771414e+01
2.060000000000000000e+02 1.745967176162980650e+01
2.070000000000000000e+02 1.753188544575667507e+01
2.080000000000000000e+02 1.760134948652581954e+01
2.090000000000000000e+02 1.766852934246873374e+01
2.100000000000000000e+02 1.774060621371303270e+01
2.110000000000000000e+02 1.781328137969931547e+01
2.120000000000000000e+02 1.788624283372146806e+01
2.130000000000000000e+02 1.795888219444237777e+01
2.140000000000000000e+02 1.803348680324970488e+01
2.150000000000000000e+02 1.810444076056916174e+01
2.160000000000000000e+02 1.817543021032151884e+01
2.170000000000000000e+02 1.824577503493384611e+01
2.180000000000000000e+02 1.831853688216879661e+01
2.190000000000000000e+02 1.838983887738556078e+01
2.200000000000000000e+02 1.846005944116593867e+01
2.210000000000000000e+02 1.853224615476586123e+01
2.220000000000000000e+02 1.860169359199024086e+01
2.230000000000000000e+02 1.867496883384885820e+01
2.240000000000000000e+02 1.874405054010618343e+01
2.250000000000000000e+02 1.881599746256738470e+01
2.260000000000000000e+02 1.888385050393711495e+01
2.270000000000000000e+02 1.895274383089179437e+01
2.280000000000000000e+02 1.902374824833559686e+01
2.290000000000000000e+02 1.909337118889045826e+01
2.300000000000000000e+02 1.916450136844027341e+01
2.310000000000000000e+02 1.923588241879095406e+01
2.320000000000000000e+02 1.930450167545609830e+01
2.330000000000000000e+02 1.937225025864893269e+01
2.340000000000000000e+02 1.944337786109619515e+01
2.350000000000000000e+02 1.951151751616649221e+01
2.360000000000000000e+02 1.958144069893183570e+01
2.370000000000000000e+02 1.965032948967434834e+01
2.380000000000000000e+02 1.971705904494747585e+01
2.390000000000000000e+02 1.978644692642664893e+01
2.400000000000000000e+02 1.985479365353899084e+01
2.410000000000000000e+02 1.992132067063116452e+01
2.420000000000000000e+02 1.999100779916224369e+01
2.430000000000000000e+02 2.005996383330497324e+01
2.440000000000000000e+02 2.013047698172157496e+01
2.450000000000000000e+02 2.019956596505792490e+01
2.460000000000000000e+02 2.026884714078094873e+01
2.470000000000000000e+02 2.033979567331492788e+01
2.480000000000000000e+02 2.040737237321109987e+01
2.490000000000000000e+02 2.047624360190789972e+01
2.500000000000000000e+02 2.054687951689252401e+01
2.510000000000000000e+02 2.061410760799352815e+01
2.520000000000000000e+02 2.068044021474781502e+01
2.530000000000000000e+02 2.074701152552771433e+01
2.540000000000000000e+02 2.081543987249396821e+01
2.550000000000000000e+02 2.088554859789988782e+01
2.560000000000000000e+02 2.095263971451625196e+01
2.570000000000000000e+02 2.101963894428944357e+01
2.580000000000000000e+02 2.108722036141423573e+01
2.590000000000000000e+02 2.115632426090228080e+01
2.600000000000000000e+02 2.122661883803884564e+01
2.610000000000000000e+02 2.129731424115603744e+01
2.620000000000000000e+02 2.136600380079245554e+01
2.630000000000000000e+02 2.143729753231719926e+01
2.640000000000000000e+02 2.150583984081550781e+01
2.650000000000000000e+02 2.157338329829077850e+01
2.660000000000000000e+02 2.164310189329221501e+01
2.670000000000000000e+02 2.171072209308675838e+01
2.680000000000000000e+02 2.177802441002865308e+01
2.690000000000000000e+02 2.184454363917894781e+01
2.700000000000000000e+02 2.191499044479127534e+01
2.710000000000000000e+02 2.198362009431920683e+01
2.720000000000000000e+02 2.205497869720470661e+01
2.730000000000000000e+02 2.212417007703622218e+01
2.740000000000000000e+02 2.219217652745327385e+01
2.750000000000000000e+02 2.226159889994911723e+01
2.760000000000000000e+02 2.233208109581677192e+01
2.770000000000000000e+02 2.240185684887226714e+01
2.780000000000000000e+02 2.247266279222963803e+01
2.790000000000000000e+02 2.254103826384556442e+01
2.800000000000000000e+02 2.260965524169926155e+01
2.810000000000000000e+02 2.267943397685755258e+01
2.820000000000000000e+02 2.274992415826311642e+01
2.830000000000000000e+02 2.282201671619602834e+01
2.840000000000000000e+02 2.289182571479896566e+01
2.850000000000000000e+02 2.296118497073253550e+01
2.860000000000000000e+02 2.303212328313809465e+01
2.870000000000000000e+02 2.310210389791700436e+01
2.880000000000000000e+02 2.317051546115162708e+01
2.890000000000000000e+02 2.324243422463310438e+01
2.900000000000000000e+02 2.331226746559642038e+01
2.910000000000000000e+02 2.338340289571801023e+01
2.920000000000000000e+02 2.345401363214793378e+01
2.930000000000000000e+02 2.352478694647180291e+01
2.940000000000000000e+02 2.359943445561051689e+01
2.950000000000000000e+02 2.366694499972576793e+01
2.960000000000000000e+02 2.373570635594127154e+01
2.970000000000000000e+02 2.380655645160106459e+01
2.980000000000000000e+02 2.387547039054263465e+01
2.990000000000000000e+02 2.394173392975620729e+01
3.000000000000000000e+02 2.401079870753693513e+01
3.010000000000000000e+02 2.408176320002606019e+01
3.020000000000000000e+02 2.415320853604944773e+01
3.030000000000000000e+02 2.422349780082745951e+01
3.040000000000000000e+02 2.429362884838889514e+01
3.050000000000000000e+02 2.436488961697571654e+01
3.060000000000000000e+02 2.443541699630383235e+01
3.070000000000000000e+02 2.450761350327941557e+01
3.080000000000000000e+02 2.458086481186439087e+01
3.090000000000000000e+02 2.465240206957956204e+01
3.100000000000000000e+02 2.472409736459942664e+01
3.110000000000000000e+02 2.479729613196105831e+01
3.120000000000000000e+02 2.487066105155305351e+01
3.130000000000000000e+02 2.494365523739598345e+01
3.140000000000000000e+02 2.501550795971911612e+01
3.150000000000000000e+02 2.508776093600956969e+01
3.160000000000000000e+02 2.515804854367721433e+01
3.170000000000000000e+02 2.522769647344695443e+01
3.180000000000000000e+02 2.529755129770083855e+01
3.190000000000000000e+02 2.536649419174516140e+01
3.200000000000000000e+02 2.543523338952063639e+01
3.210000000000000000e+02 2.550574705532241282e+01
3.220000000000000000e+02 2.557783819006957060e+01
3.230000000000000000e+02 2.565102641396690331e+01
3.240000000000000000e+02 2.572134652714221303e+01
3.250000000000000000e+02 2.579267172402074593e+01
3.260000000000000000e+02 2.586274430566418303e+01
3.270000000000000000e+02 2.593478265945677563e+01
3.280000000000000000e+02 2.600590652193347196e+01
3.290000000000000000e+02 2.607871520514818187e+01
3.300000000000000000e+02 2.614853253949594247e+01
3.310000000000000000e+02 2.622044172828793407e+01
3.320000000000000000e+02 2.629073600324189286e+01
3.330000000000000000e+02 2.636107038782004608e+01
3.340000000000000000e+02 2.643074481645454554e+01
3.350000000000000000e+02 2.650095612322316185e+01
3.360000000000000000e+02 2.657416291525031227e+01
3.370000000000000000e+02 2.664523346742207366e+01
3.380000000000000000e+02 2.671211929796550422e+01
3.390000000000000000e+02 2.678150062575777568e+01
3.400000000000000000e+02 2.685134552614026759e+01
3.410000000000000000e+02 2.692090884822072283e+01
3.420000000000000000e+02 2.699118093810799834e+01
3.430000000000000000e+02 2.706314571720773543e+01
3.440000000000000000e+02 2.713487873311332876e+01
3.450000000000000000e+02 2.720300845951638635e+01
3.460000000000000000e+02 2.727356992961328430e+01
3.470000000000000000e+02 2.734637008571700889e+01
3.480000000000000000e+02 2.741752649699566291e+01
3.490000000000000000e+02 2.749014020750678000e+01
3.500000000000000000e+02 2.756094974434966005e+01
3.510000000000000000e+02 2.762937432432547169e+01
3.520000000000000000e+02 2.770202926200263960e+01
3.530000000000000000e+02 2.777501739973670780e+01
3.540000000000000000e+02 2.784805763752261853e+01
3.550000000000000000e+02 2.792008909305016573e+01
3.560000000000000000e+02 2.799004864876113174e+01
3.570000000000000000e+02 2.806272324641332361e+01
3.580000000000000000e+02 2.813224647353962382e+01
3.590000000000000000e+02 2.820478313435637574e+01
3.600000000000000000e+02 2.827993168489275888e+01
3.610000000000000000e+02 2.834976935314148250e+01
3.620000000000000000e+02 2.842268935620133519e+01
3.630000000000000000e+02 2.849469067102674558e+01
3.640000000000000000e+02 2.856965314283549517e+01
3.650000000000000000e+02 2.863997566817711871e+01
3.660000000000000000e+02 2.871095535029546042e+01
3.670000000000000000e+02 2.878636991838432735e+01
3.680000000000000000e+02 2.885822227153197517e+01
3.690000000000000000e+02 2.892990831593884593e+01
3.700000000000000000e+02 2.900070414903262872e+01
3.710000000000000000e+02 2.907372018770496425e+01
3.720000000000000000e+02 2.914458426454399032e+01
3.730000000000000000e+02 2.921576068957115524e+01
3.740000000000000000e+02 2.928641398305164145e+01
3.750000000000000000e+02 2.935790928010328926e+01
3.760000000000000000e+02 2.943119316791215567e+01
3.770000000000000000e+02 2.950456929682714602e+01
3.780000000000000000e+02 2.957603898251862518e+01
3.790000000000000000e+02 2.964705444505301557e+01
3.800000000000000000e+02 2.972013359422776446e+01
3.810000000000000000e+02 2.978928928308998536e+01
3.820000000000000000e+02 2.986345527000189293e+01
3.830000000000000000e+02 2.993608523856295278e+01
3.840000000000000000e+02 3.000612857132939482e+01
3.850000000000000000e+02 3.007660392196926935e+01
3.860000000000000000e+02 3.014932231234772075e+01
3.870000000000000000e+02 3.022023383536360441e+01
3.880000000000000000e+02 3.029263507511279840e+01
3.890000000000000000e+02 3.036772651075564156e+01
3.900000000000000000e+02 3.044411454790822802e+01
3.910000000000000000e+02 3.051721382997752130e+01
3.920000000000000000e+02 3.058910049417341170e+01
3.930000000000000000e+02 3.066467293262654792e+01
3.940000000000000000e+02 3.073667883978172810e+01
3.950000000000000000e+02 3.081057462214566556e+01
3.960000000000000000e+02 3.088280411136287285e+01
3.970000000000000000e+02 3.095802273213923073e+01
3.980000000000000000e+02 3.103375620677177338e+01
