# time (ps)	msd (A2)
0.000000000000000000e+00 7.150465127146533950e-06
5.000000000000000104e-03 3.319260981128812401e-03
1.000000000000000021e-02 1.285963248899766632e-02
1.499999999999999944e-02 2.743682359685525873e-02
2.000000000000000042e-02 4.548323465195316245e-02
2.500000000000000139e-02 6.521123376796920945e-02
2.999999999999999889e-02 8.507412807254681464e-02
3.500000000000000333e-02 1.038132261204052914e-01
4.000000000000000083e-02 1.206853685842990548e-01
4.499999999999999833e-02 1.354042237599646092e-01
5.000000000000000278e-02 1.481021132615453206e-01
5.500000000000000028e-02 1.591467068249806383e-01
5.999999999999999778e-02 1.691112525630533714e-01
6.500000000000000222e-02 1.785602550438599445e-01
7.000000000000000666e-02 1.879172262270947247e-01
7.499999999999999722e-02 1.974288541642321981e-01
8.000000000000000167e-02 2.073218324715558059e-01
8.500000000000000611e-02 2.175785312541325123e-01
8.999999999999999667e-02 2.280079150684028166e-01
9.500000000000000111e-02 2.385283103851618958e-01
1.000000000000000056e-01 2.489005331997867498e-01
1.049999999999999961e-01 2.589686780718523651e-01
1.100000000000000006e-01 2.686521826600580254e-01
1.150000000000000050e-01 2.778171075363960463e-01
1.199999999999999956e-01 2.865687203719746723e-01
1.250000000000000000e-01 2.948336939756472375e-01
1.300000000000000044e-01 3.027569009182075610e-01
1.350000000000000089e-01 3.104149617906366565e-01
1.400000000000000133e-01 3.177560705630540494e-01
1.449999999999999900e-01 3.249903891733049721e-01
1.499999999999999944e-01 3.321091702498803477e-01
1.549999999999999989e-01 3.390842194122881126e-01
1.600000000000000033e-01 3.460148864490004139e-01
1.650000000000000078e-01 3.528387676680956875e-01
1.700000000000000122e-01 3.594909211489267231e-01
1.750000000000000167e-01 3.660196375500389121e-01
1.799999999999999933e-01 3.723571173001964385e-01
1.849999999999999978e-01 3.785482251560614020e-01
1.900000000000000022e-01 3.845082963513204999e-01
1.950000000000000067e-01 3.902606391510148320e-01
2.000000000000000111e-01 3.958984418428654339e-01
2.050000000000000155e-01 4.014166173161881623e-01
2.099999999999999922e-01 4.068230744485943906e-01
2.149999999999999967e-01 4.122450070660748089e-01
2.200000000000000011e-01 4.176556176897760486e-01
2.250000000000000056e-01 4.231876910691631521e-01
2.300000000000000100e-01 4.287688539407550903e-01
2.350000000000000144e-01 4.344678737748338127e-01
2.399999999999999911e-01 4.402153682098259302e-01
2.449999999999999956e-01 4.459640729605811593e-01
2.500000000000000000e-01 4.517437776328797061e-01
2.550000000000000044e-01 4.575341960009516318e-01
2.600000000000000089e-01 4.633033741383479343e-01
2.650000000000000133e-01 4.690460751714511933e-01
2.700000000000000178e-01 4.746812431463713899e-01
2.750000000000000222e-01 4.803417127950562748e-01
2.800000000000000266e-01 4.859701797641733934e-01
2.850000000000000311e-01 4.915363364535869084e-01
2.899999999999999800e-01 4.971174326672924693e-01
2.949999999999999845e-01 5.026816060908131378e-01
2.999999999999999889e-01 5.082148522780277622e-01
3.049999999999999933e-01 5.137473268985713881e-01
3.099999999999999978e-01 5.192311633941527615e-01
3.150000000000000022e-01 5.247068735456253963e-01
3.200000000000000067e-01 5.302174267807031605e-01
3.250000000000000111e-01 5.356696320580742743e-01
3.300000000000000155e-01 5.411333642354398954e-01
3.350000000000000200e-01 5.465585156767817088e-01
3.400000000000000244e-01 5.520091396408891571e-01
3.450000000000000289e-01 5.573953104164565131e-01
3.500000000000000333e-01 5.627388549195649903e-01
3.549999999999999822e-01 5.680237090506111697e-01
3.599999999999999867e-01 5.732574615150979325e-01
3.649999999999999911e-01 5.784648277510170411e-01
3.699999999999999956e-01 5.835133133933999572e-01
3.750000000000000000e-01 5.885948492001394916e-01
3.800000000000000044e-01 5.935749499840160537e-01
3.850000000000000089e-01 5.985521808452001213e-01
3.900000000000000133e-01 6.034364318140550409e-01
3.950000000000000178e-01 6.083908553424016707e-01
4.000000000000000222e-01 6.133294571791508831e-01
4.050000000000000266e-01 6.182452204349581093e-01
4.100000000000000311e-01 6.232190447881053030e-01
4.150000000000000355e-01 6.281862427178505071e-01
4.199999999999999845e-01 6.331825548737781695e-01
4.249999999999999889e-01 6.381408733003260947e-01
4.299999999999999933e-01 6.430487060209720829e-01
4.349999999999999978e-01 6.479019266646529607e-01
4.400000000000000022e-01 6.527162960558138272e-01
4.450000000000000067e-01 6.574075831908343659e-01
4.500000000000000111e-01 6.620352454640662243e-01
4.550000000000000155e-01 6.666062535664859512e-01
4.600000000000000200e-01 6.710500790137494675e-01
4.650000000000000244e-01 6.754401258633171423e-01
4.700000000000000289e-01 6.798797046230394825e-01
4.750000000000000333e-01 6.842527719301974010e-01
4.799999999999999822e-01 6.886269223181088472e-01
4.849999999999999867e-01 6.930346006077696686e-01
4.899999999999999911e-01 6.974353077605037754e-01
4.949999999999999956e-01 7.018549268541020014e-01
5.000000000000000000e-01 7.062880314625816780e-01
5.050000000000000044e-01 7.106503137685500349e-01
5.100000000000000089e-01 7.149742470909240533e-01
5.150000000000000133e-01 7.192463671887390220e-01
5.200000000000000178e-01 7.234876593069065054e-01
5.250000000000000222e-01 7.276196295868557762e-01
5.300000000000000266e-01 7.317625713779154495e-01
5.350000000000000311e-01 7.358816906710251571e-01
5.400000000000000355e-01 7.399632079805900098e-01
5.450000000000000400e-01 7.440699207202747800e-01
5.500000000000000444e-01 7.481550649505589456e-01
5.550000000000000488e-01 7.522773069018704462e-01
5.600000000000000533e-01 7.563622839777267570e-01
5.650000000000000577e-01 7.604944575788316063e-01
5.700000000000000622e-01 7.646709704602271396e-01
5.750000000000000666e-01 7.688204273334101613e-01
5.799999999999999600e-01 7.729710671485262585e-01
5.849999999999999645e-01 7.771432103314465101e-01
5.899999999999999689e-01 7.813253703867376609e-01
5.949999999999999734e-01 7.854923238973386956e-01
5.999999999999999778e-01 7.896198594661006931e-01
6.049999999999999822e-01 7.937250741027197520e-01
6.099999999999999867e-01 7.977770236361237943e-01
6.149999999999999911e-01 8.017999931938052383e-01
6.199999999999999956e-01 8.057587273605063549e-01
6.250000000000000000e-01 8.096782129098537562e-01
6.300000000000000044e-01 8.135819112376255768e-01
6.350000000000000089e-01 8.174667984113413999e-01
6.400000000000000133e-01 8.213196240333967557e-01
6.450000000000000178e-01 8.252273824820796078e-01
6.500000000000000222e-01 8.291212927775987174e-01
6.550000000000000266e-01 8.330579589618080094e-01
6.600000000000000311e-01 8.370513019501021335e-01
6.650000000000000355e-01 8.411307221813810742e-01
6.700000000000000400e-01 8.452047043385256808e-01
6.750000000000000444e-01 8.493178184535720154e-01
6.800000000000000488e-01 8.534885434596303222e-01
6.850000000000000533e-01 8.576376128963980605e-01
6.900000000000000577e-01 8.617432032586359592e-01
6.950000000000000622e-01 8.658198028284741499e-01
7.000000000000000666e-01 8.698606293142211454e-01
7.049999999999999600e-01 8.738420932585402312e-01
7.099999999999999645e-01 8.778045555603076755e-01
7.149999999999999689e-01 8.817364136593713875e-01
7.199999999999999734e-01 8.856349238047417360e-01
7.249999999999999778e-01 8.895374892750090856e-01
7.299999999999999822e-01 8.934288689390975646e-01
7.349999999999999867e-01 8.972787826943338096e-01
7.399999999999999911e-01 9.010988106059242275e-01
7.449999999999999956e-01 9.049055212961331085e-01
7.500000000000000000e-01 9.087246366421114496e-01
7.550000000000000044e-01 9.125052297314484306e-01
7.600000000000000089e-01 9.162536389374181800e-01
7.650000000000000133e-01 9.200241287102758347e-01
7.700000000000000178e-01 9.237895455664332234e-01
7.750000000000000222e-01 9.275010733556169340e-01
7.800000000000000266e-01 9.311901633923449495e-01
7.850000000000000311e-01 9.348848234461502038e-01
7.900000000000000355e-01 9.385138777703811996e-01
7.950000000000000400e-01 9.421552576838522208e-01
8.000000000000000444e-01 9.457609737996574006e-01
8.050000000000000488e-01 9.493848915495100016e-01
8.100000000000000533e-01 9.529460752937772838e-01
8.150000000000000577e-01 9.565323122918835130e-01
8.200000000000000622e-01 9.601150167985945671e-01
8.250000000000000666e-01 9.636479717750825458e-01
8.300000000000000711e-01 9.672223022095155498e-01
8.349999999999999645e-01 9.707777669640882401e-01
8.399999999999999689e-01 9.743375900081173713e-01
8.449999999999999734e-01 9.778759352270789407e-01
8.499999999999999778e-01 9.813629381904694915e-01
8.549999999999999822e-01 9.848357655559415447e-01
8.599999999999999867e-01 9.882610572172554342e-01
8.649999999999999911e-01 9.916583946068140420e-01
8.699999999999999956e-01 9.950842121551310981e-01
8.750000000000000000e-01 9.984575242853247490e-01
8.800000000000000044e-01 1.001801908609441183e+00
8.850000000000000089e-01 1.005185397183757212e+00
8.900000000000000133e-01 1.008555298044234938e+00
8.950000000000000178e-01 1.011934726420544495e+00
9.000000000000000222e-01 1.015325327799712074e+00
9.050000000000000266e-01 1.018769997034998598e+00
9.100000000000000311e-01 1.022246916260440841e+00
9.150000000000000355e-01 1.025729334753744171e+00
9.200000000000000400e-01 1.029254406291536084e+00
9.250000000000000444e-01 1.032790870126116589e+00
9.300000000000000488e-01 1.036306903940813262e+00
9.350000000000000533e-01 1.039811935736486115e+00
9.400000000000000577e-01 1.043310962628303029e+00
9.450000000000000622e-01 1.046796481351297325e+00
9.500000000000000666e-01 1.050289872946182923e+00
9.550000000000000711e-01 1.053745808538914863e+00
9.599999999999999645e-01 1.057190123031701567e+00
9.649999999999999689e-01 1.060642410060226526e+00
9.699999999999999734e-01 1.064061164160347683e+00
9.749999999999999778e-01 1.067478944363425164e+00
9.799999999999999822e-01 1.070927175308953316e+00
9.849999999999999867e-01 1.074345965583322071e+00
9.899999999999999911e-01 1.077808312405389435e+00
9.949999999999999956e-01 1.081230298093547315e+00
1.000000000000000000e+00 1.084642684256156508e+00
1.005000000000000115e+00 1.088111629067661790e+00
1.010000000000000009e+00 1.091542817983700564e+00
1.015000000000000124e+00 1.094990228261873311e+00
1.020000000000000018e+00 1.098418734531328989e+00
1.024999999999999911e+00 1.101877005318693481e+00
1.030000000000000027e+00 1.105333891198171381e+00
1.034999999999999920e+00 1.108726202963704388e+00
1.040000000000000036e+00 1.112162800099255833e+00
1.044999999999999929e+00 1.115659344720528523e+00
1.050000000000000044e+00 1.119146322115416536e+00
1.054999999999999938e+00 1.122597213015692708e+00
1.060000000000000053e+00 1.126088871962637405e+00
1.064999999999999947e+00 1.129569114118113005e+00
1.070000000000000062e+00 1.133071735346400599e+00
1.074999999999999956e+00 1.136549452934242366e+00
1.080000000000000071e+00 1.140114281934486051e+00
1.084999999999999964e+00 1.143653173949259916e+00
1.090000000000000080e+00 1.147199243792437651e+00
1.094999999999999973e+00 1.150765736895271951e+00
1.100000000000000089e+00 1.154328029180046178e+00
1.104999999999999982e+00 1.157845168427142246e+00
1.110000000000000098e+00 1.161386834549673841e+00
1.114999999999999991e+00 1.164922683405201775e+00
1.120000000000000107e+00 1.168422544974373478e+00
1.125000000000000000e+00 1.171910299838229808e+00
1.130000000000000115e+00 1.175427190117792620e+00
1.135000000000000009e+00 1.178977511183319837e+00
1.140000000000000124e+00 1.182491697566011579e+00
1.145000000000000018e+00 1.185990524671347801e+00
1.150000000000000133e+00 1.189461123526398767e+00
1.155000000000000027e+00 1.192996083652243078e+00
1.159999999999999920e+00 1.196482165411179244e+00
1.165000000000000036e+00 1.199988253787475090e+00
1.169999999999999929e+00 1.203477324693105421e+00
1.175000000000000044e+00 1.206991033632399013e+00
1.179999999999999938e+00 1.210489869702640275e+00
1.185000000000000053e+00 1.213937231831515584e+00
1.189999999999999947e+00 1.217449978139627520e+00
1.195000000000000062e+00 1.220918133945626982e+00
1.199999999999999956e+00 1.224433219777726123e+00
1.205000000000000071e+00 1.227961047811321871e+00
1.209999999999999964e+00 1.231490447359418816e+00
1.215000000000000080e+00 1.234991519454601283e+00
1.219999999999999973e+00 1.238511575969390544e+00
1.225000000000000089e+00 1.242013228166188865e+00
1.229999999999999982e+00 1.245558445418391225e+00
1.235000000000000098e+00 1.249109225322206695e+00
1.239999999999999991e+00 1.252704081091650989e+00
1.245000000000000107e+00 1.256230820686540239e+00
1.250000000000000000e+00 1.259802112389983852e+00
1.255000000000000115e+00 1.263397206963532193e+00
1.260000000000000009e+00 1.266943197787401276e+00
1.265000000000000124e+00 1.270527977993680002e+00
1.270000000000000018e+00 1.274052458187264536e+00
1.275000000000000133e+00 1.277585815868161667e+00
1.280000000000000027e+00 1.281145279511616275e+00
1.284999999999999920e+00 1.284642860675024423e+00
1.290000000000000036e+00 1.288193925663805084e+00
1.294999999999999929e+00 1.291737083612428671e+00
1.300000000000000044e+00 1.295280437001063989e+00
1.304999999999999938e+00 1.298836766081402416e+00
1.310000000000000053e+00 1.302408079133094754e+00
1.314999999999999947e+00 1.305962770851341048e+00
1.320000000000000062e+00 1.309516248927321547e+00
1.324999999999999956e+00 1.313084123469426379e+00
1.330000000000000071e+00 1.316648235865054195e+00
1.334999999999999964e+00 1.320164339347730698e+00
1.340000000000000080e+00 1.323716357090973572e+00
1.344999999999999973e+00 1.327244618560742051e+00
1.350000000000000089e+00 1.330718388675910191e+00
1.354999999999999982e+00 1.334254541592474252e+00
1.360000000000000098e+00 1.337822910499865126e+00
1.364999999999999991e+00 1.341364121088296280e+00
1.370000000000000107e+00 1.344952270212009138e+00
1.375000000000000000e+00 1.348543309292977499e+00
1.380000000000000115e+00 1.352112676532742919e+00
1.385000000000000009e+00 1.355732869156748732e+00
1.390000000000000124e+00 1.359378645407976594e+00
1.395000000000000018e+00 1.362997904095424095e+00
1.400000000000000133e+00 1.366633386052180432e+00
1.405000000000000027e+00 1.370272146138725056e+00
1.409999999999999920e+00 1.373925954789375403e+00
1.415000000000000036e+00 1.377578643793607283e+00
1.419999999999999929e+00 1.381194977259955436e+00
1.425000000000000044e+00 1.384849951970917203e+00
1.429999999999999938e+00 1.388508978154688434e+00
1.435000000000000053e+00 1.392186251547131937e+00
1.439999999999999947e+00 1.395801723048550658e+00
1.445000000000000062e+00 1.399470903807177757e+00
1.449999999999999956e+00 1.403132404765214503e+00
1.455000000000000071e+00 1.406762433786796551e+00
1.459999999999999964e+00 1.410393008422132333e+00
1.465000000000000080e+00 1.413999616322759723e+00
1.469999999999999973e+00 1.417589518929242898e+00
1.475000000000000089e+00 1.421145128094796428e+00
1.479999999999999982e+00 1.424716150713948970e+00
1.485000000000000098e+00 1.428301121283402919e+00
1.489999999999999991e+00 1.431823270977793827e+00
1.495000000000000107e+00 1.435399929013389198e+00
1.500000000000000000e+00 1.438960866416459927e+00
1.505000000000000115e+00 1.442534625124483938e+00
1.510000000000000009e+00 1.446165915702486204e+00
1.515000000000000124e+00 1.449764561110119532e+00
1.520000000000000018e+00 1.453422812788351282e+00
1.525000000000000133e+00 1.457071246196070646e+00
1.530000000000000027e+00 1.460687130266495659e+00
1.535000000000000142e+00 1.464322752987653686e+00
1.540000000000000036e+00 1.467996851974507022e+00
1.544999999999999929e+00 1.471654697298887760e+00
1.550000000000000044e+00 1.475324656039344262e+00
1.554999999999999938e+00 1.479045336598917793e+00
1.560000000000000053e+00 1.482787995349167609e+00
1.564999999999999947e+00 1.486535445530538624e+00
1.570000000000000062e+00 1.490273218317049286e+00
1.574999999999999956e+00 1.494072751868493976e+00
1.580000000000000071e+00 1.497886518606801332e+00
1.584999999999999964e+00 1.501715093228858544e+00
1.590000000000000080e+00 1.505581566806279747e+00
1.594999999999999973e+00 1.509485332303350136e+00
1.600000000000000089e+00 1.513324972584841221e+00
1.604999999999999982e+00 1.517161062268100435e+00
1.610000000000000098e+00 1.521042347042719456e+00
1.614999999999999991e+00 1.524932977399495515e+00
1.620000000000000107e+00 1.528828371130450892e+00
1.625000000000000000e+00 1.532725313425735258e+00
1.630000000000000115e+00 1.536626229727084736e+00
1.635000000000000009e+00 1.540521885145950121e+00
1.640000000000000124e+00 1.544491121437612691e+00
1.645000000000000018e+00 1.548451315532379802e+00
1.650000000000000133e+00 1.552442559761340712e+00
1.655000000000000027e+00 1.556469325984618068e+00
1.660000000000000142e+00 1.560492912808649768e+00
1.665000000000000036e+00 1.564586312899605147e+00
1.669999999999999929e+00 1.568626736245520625e+00
1.675000000000000044e+00 1.572662360100212764e+00
1.679999999999999938e+00 1.576636644792787534e+00
1.685000000000000053e+00 1.580613816037347519e+00
1.689999999999999947e+00 1.584538304633168027e+00
1.695000000000000062e+00 1.588419681850763654e+00
1.699999999999999956e+00 1.592269147501651716e+00
1.705000000000000071e+00 1.596111459801268451e+00
1.709999999999999964e+00 1.599885505795800356e+00
1.715000000000000080e+00 1.603644555291452667e+00
1.719999999999999973e+00 1.607398386672199919e+00
1.725000000000000089e+00 1.611141517541607060e+00
1.729999999999999982e+00 1.614908675790003967e+00
1.735000000000000098e+00 1.618652518651268579e+00
1.739999999999999991e+00 1.622438627071953077e+00
1.745000000000000107e+00 1.626205206043255025e+00
1.750000000000000000e+00 1.630007385784142615e+00
1.755000000000000115e+00 1.633842428290725124e+00
1.760000000000000009e+00 1.637633783307153701e+00
1.765000000000000124e+00 1.641442106194783479e+00
1.770000000000000018e+00 1.645247719695149824e+00
1.775000000000000133e+00 1.649049655535499426e+00
1.780000000000000027e+00 1.652796716856216763e+00
1.785000000000000142e+00 1.656575607707675424e+00
1.790000000000000036e+00 1.660330174331949626e+00
1.794999999999999929e+00 1.664038563143919847e+00
1.800000000000000044e+00 1.667735403874254230e+00
1.804999999999999938e+00 1.671480641480948881e+00
1.810000000000000053e+00 1.675249322247136297e+00
1.814999999999999947e+00 1.678991705006515067e+00
1.820000000000000062e+00 1.682798310438746725e+00
1.824999999999999956e+00 1.686579632225243541e+00
1.830000000000000071e+00 1.690460869104456920e+00
1.834999999999999964e+00 1.694379298653690080e+00
1.840000000000000080e+00 1.698249675635673306e+00
1.844999999999999973e+00 1.702225076707069240e+00
1.850000000000000089e+00 1.706201664118159878e+00
1.854999999999999982e+00 1.710152912498256184e+00
1.860000000000000098e+00 1.714118257532848189e+00
1.864999999999999991e+00 1.718029515524011508e+00
1.870000000000000107e+00 1.721950070017445711e+00
1.875000000000000000e+00 1.725795262798583751e+00
1.880000000000000115e+00 1.729647018891484977e+00
1.885000000000000009e+00 1.733477089395740522e+00
1.890000000000000124e+00 1.737303136382189139e+00
1.895000000000000018e+00 1.741168427917873851e+00
1.900000000000000133e+00 1.744999364984646917e+00
1.905000000000000027e+00 1.748838935570759423e+00
1.910000000000000142e+00 1.752714815926616154e+00
1.915000000000000036e+00 1.756572694820766722e+00
1.919999999999999929e+00 1.760477837328410899e+00
1.925000000000000044e+00 1.764328366304258155e+00
1.929999999999999938e+00 1.768237484861017172e+00
1.935000000000000053e+00 1.772088659035829794e+00
1.939999999999999947e+00 1.776015567097738668e+00
1.945000000000000062e+00 1.779955452246834158e+00
1.949999999999999956e+00 1.783864842656195604e+00
1.955000000000000071e+00 1.787797671038257263e+00
1.959999999999999964e+00 1.791766746070753813e+00
1.965000000000000080e+00 1.795732295089226938e+00
1.969999999999999973e+00 1.799731626605072243e+00
1.975000000000000089e+00 1.803713053556255330e+00
1.979999999999999982e+00 1.807682174337109204e+00
1.985000000000000098e+00 1.811666167230661317e+00
1.989999999999999991e+00 1.815587827562146428e+00
