# time (ps)	msd (A2)
0.000000000000000000e+00 1.313718485147180114e-05
5.000000000000000104e-03 3.350275700148405613e-03
1.000000000000000021e-02 1.291295542611148317e-02
1.499999999999999944e-02 2.759282331453609058e-02
2.000000000000000042e-02 4.579857598525797352e-02
2.500000000000000139e-02 6.574856991660756045e-02
2.999999999999999889e-02 8.588332234213839900e-02
3.500000000000000333e-02 1.049161303866519984e-01
4.000000000000000083e-02 1.220615738077321516e-01
4.499999999999999833e-02 1.369972646636923586e-01
5.000000000000000278e-02 1.498300917252111675e-01
5.500000000000000028e-02 1.608833750170552690e-01
5.999999999999999778e-02 1.707224514324026943e-01
6.500000000000000222e-02 1.798447159875978529e-01
7.000000000000000666e-02 1.887320528615046566e-01
7.499999999999999722e-02 1.976995685449242091e-01
8.000000000000000167e-02 2.069458558009368565e-01
8.500000000000000611e-02 2.164484114958512839e-01
8.999999999999999667e-02 2.261895248644987255e-01
9.500000000000000111e-02 2.359873409367202746e-01
1.000000000000000056e-01 2.456965650093278219e-01
1.049999999999999961e-01 2.551714568027683150e-01
1.100000000000000006e-01 2.642862358619213481e-01
1.150000000000000050e-01 2.729629443510108722e-01
1.199999999999999956e-01 2.811756423562437601e-01
1.250000000000000000e-01 2.889183508798398026e-01
1.300000000000000044e-01 2.962497236490213015e-01
1.350000000000000089e-01 3.031806696782098354e-01
1.400000000000000133e-01 3.097979086060377862e-01
1.449999999999999900e-01 3.161342522323767334e-01
1.499999999999999944e-01 3.222749773945388641e-01
1.549999999999999989e-01 3.282656428916143621e-01
1.600000000000000033e-01 3.341493337060733038e-01
1.650000000000000078e-01 3.399432809201364258e-01
1.700000000000000122e-01 3.456652137514326095e-01
1.750000000000000167e-01 3.512817598659329632e-01
1.799999999999999933e-01 3.568495804442862185e-01
1.849999999999999978e-01 3.622906879526880952e-01
1.900000000000000022e-01 3.676382858096797768e-01
1.950000000000000067e-01 3.728607029472902901e-01
2.000000000000000111e-01 3.779770314284816024e-01
2.050000000000000155e-01 3.830397302221906775e-01
2.099999999999999922e-01 3.880341524021981847e-01
2.149999999999999967e-01 3.930376386811255673e-01
2.200000000000000011e-01 3.980914415689187358e-01
2.250000000000000056e-01 4.032041179502720563e-01
2.300000000000000100e-01 4.084241702055901868e-01
2.350000000000000144e-01 4.137484578667372515e-01
2.399999999999999911e-01 4.191745651043672360e-01
2.449999999999999956e-01 4.246388312521442998e-01
2.500000000000000000e-01 4.301538666528033072e-01
2.550000000000000044e-01 4.356538525796356254e-01
2.600000000000000089e-01 4.411072354499465664e-01
2.650000000000000133e-01 4.464789472276424753e-01
2.700000000000000178e-01 4.517718994423032264e-01
2.750000000000000222e-01 4.569568213355476582e-01
2.800000000000000266e-01 4.620575231282084694e-01
2.850000000000000311e-01 4.670771036782983554e-01
2.899999999999999800e-01 4.720498211956323242e-01
2.949999999999999845e-01 4.769844886398255657e-01
2.999999999999999889e-01 4.818712760091627412e-01
3.049999999999999933e-01 4.867602869141650079e-01
3.099999999999999978e-01 4.916421212313532574e-01
3.150000000000000022e-01 4.964986388665353911e-01
3.200000000000000067e-01 5.013409377784454612e-01
3.250000000000000111e-01 5.061457208054045420e-01
3.300000000000000155e-01 5.109152739868485504e-01
3.350000000000000200e-01 5.156122275353614004e-01
3.400000000000000244e-01 5.202760716687281350e-01
3.450000000000000289e-01 5.248562794763219630e-01
3.500000000000000333e-01 5.293864075807528380e-01
3.549999999999999822e-01 5.338732281701999982e-01
3.599999999999999867e-01 5.382742679300742683e-01
3.649999999999999911e-01 5.426429605626064134e-01
3.699999999999999956e-01 5.469451714270351372e-01
3.750000000000000000e-01 5.512408130757742164e-01
3.800000000000000044e-01 5.555071845162165012e-01
3.850000000000000089e-01 5.597726504991232810e-01
3.900000000000000133e-01 5.640379374919326505e-01
3.950000000000000178e-01 5.683410033314640897e-01
4.000000000000000222e-01 5.726229443674414332e-01
4.050000000000000266e-01 5.769373190643681815e-01
4.100000000000000311e-01 5.812888004106135931e-01
4.150000000000000355e-01 5.856224671289632644e-01
4.199999999999999845e-01 5.899486498130755985e-01
4.249999999999999889e-01 5.942522747937333261e-01
4.299999999999999933e-01 5.984891867916524166e-01
4.349999999999999978e-01 6.026662827424743574e-01
4.400000000000000022e-01 6.067708636586561788e-01
4.450000000000000067e-01 6.107494375970833334e-01
4.500000000000000111e-01 6.146670927785750083e-01
4.550000000000000155e-01 6.185046448190936186e-01
4.600000000000000200e-01 6.222951547539367079e-01
4.650000000000000244e-01 6.260550138139110432e-01
4.700000000000000289e-01 6.298349388581766517e-01
4.750000000000000333e-01 6.336076969610106024e-01
4.799999999999999822e-01 6.374117569609316636e-01
4.849999999999999867e-01 6.412309684502408569e-01
4.899999999999999911e-01 6.450599818004891794e-01
4.949999999999999956e-01 6.488884862568893297e-01
5.000000000000000000e-01 6.526875036676510478e-01
5.050000000000000044e-01 6.564651339118372508e-01
5.100000000000000089e-01 6.601845765824359002e-01
5.150000000000000133e-01 6.638597823439439383e-01
5.200000000000000178e-01 6.675130704688779781e-01
5.250000000000000222e-01 6.711195700246396223e-01
5.300000000000000266e-01 6.747001097312973483e-01
5.350000000000000311e-01 6.782692836070659537e-01
5.400000000000000355e-01 6.818200892360234411e-01
5.450000000000000400e-01 6.853342328864776567e-01
5.500000000000000444e-01 6.888863708717302137e-01
5.550000000000000488e-01 6.924036872758604355e-01
5.600000000000000533e-01 6.959117674434004419e-01
5.650000000000000577e-01 6.993849233690808687e-01
5.700000000000000622e-01 7.028710412412478847e-01
5.750000000000000666e-01 7.063012476364106673e-01
5.799999999999999600e-01 7.097563736914914712e-01
5.849999999999999645e-01 7.131812390515431810e-01
5.899999999999999689e-01 7.166003438237402712e-01
5.949999999999999734e-01 7.200425850231403357e-01
5.999999999999999778e-01 7.234600576670547900e-01
6.049999999999999822e-01 7.268655129909532553e-01
6.099999999999999867e-01 7.302659363693893013e-01
6.149999999999999911e-01 7.336472685332352528e-01
6.199999999999999956e-01 7.369877830953687203e-01
6.250000000000000000e-01 7.402758794060488867e-01
6.300000000000000044e-01 7.435723597249409567e-01
6.350000000000000089e-01 7.468052383590771948e-01
6.400000000000000133e-01 7.500069920676762925e-01
6.450000000000000178e-01 7.532101797029082668e-01
6.500000000000000222e-01 7.564179815166639509e-01
6.550000000000000266e-01 7.596707988783845122e-01
6.600000000000000311e-01 7.629511595542505242e-01
6.650000000000000355e-01 7.663180468305114124e-01
6.700000000000000400e-01 7.697332126897786786e-01
6.750000000000000444e-01 7.732227451216640013e-01
6.800000000000000488e-01 7.767806841320386013e-01
6.850000000000000533e-01 7.803975933388876962e-01
6.900000000000000577e-01 7.840618014256355295e-01
6.950000000000000622e-01 7.877518711853545019e-01
7.000000000000000666e-01 7.914423492721268660e-01
7.049999999999999600e-01 7.950955750632938690e-01
7.099999999999999645e-01 7.987429093101757749e-01
7.149999999999999689e-01 8.023693298195034851e-01
7.199999999999999734e-01 8.059671962569247006e-01
7.249999999999999778e-01 8.095503875234265623e-01
7.299999999999999822e-01 8.131162089910365376e-01
7.349999999999999867e-01 8.166605023812566477e-01
7.399999999999999911e-01 8.202171666555315710e-01
7.449999999999999956e-01 8.237561324044548883e-01
7.500000000000000000e-01 8.273224929300658781e-01
7.550000000000000044e-01 8.308977410555754561e-01
7.600000000000000089e-01 8.344810123673397362e-01
7.650000000000000133e-01 8.380533090459342249e-01
7.700000000000000178e-01 8.416285761779301877e-01
7.750000000000000222e-01 8.451596246899747422e-01
7.800000000000000266e-01 8.486734793587262793e-01
7.850000000000000311e-01 8.521293412530622779e-01
7.900000000000000355e-01 8.555494985863462132e-01
7.950000000000000400e-01 8.589128682587195973e-01
8.000000000000000444e-01 8.622314062617734143e-01
8.050000000000000488e-01 8.655175137213363401e-01
8.100000000000000533e-01 8.688008679696007652e-01
8.150000000000000577e-01 8.720746408767968694e-01
8.200000000000000622e-01 8.753416617698445146e-01
8.250000000000000666e-01 8.785927465680885007e-01
8.300000000000000711e-01 8.818840744661552433e-01
8.349999999999999645e-01 8.851623845569015492e-01
8.399999999999999689e-01 8.884671609153556027e-01
8.449999999999999734e-01 8.917772110365215221e-01
8.499999999999999778e-01 8.950824563780382936e-01
8.549999999999999822e-01 8.983665319967689689e-01
8.599999999999999867e-01 9.016598968703520844e-01
8.649999999999999911e-01 9.049044535814297907e-01
8.699999999999999956e-01 9.081615825108512174e-01
8.750000000000000000e-01 9.113621278067046694e-01
8.800000000000000044e-01 9.145561773109308623e-01
8.850000000000000089e-01 9.177542848896522720e-01
8.900000000000000133e-01 9.209592468642225915e-01
8.950000000000000178e-01 9.241672884291173284e-01
9.000000000000000222e-01 9.273918771180555964e-01
9.050000000000000266e-01 9.306347648213512125e-01
9.100000000000000311e-01 9.339299903624361798e-01
9.150000000000000355e-01 9.371897396822074233e-01
9.200000000000000400e-01 9.404930954391916842e-01
9.250000000000000444e-01 9.437548839689089419e-01
9.300000000000000488e-01 9.470149624127887078e-01
9.350000000000000533e-01 9.502383415461914673e-01
9.400000000000000577e-01 9.534191939209651911e-01
9.450000000000000622e-01 9.565667066299629040e-01
9.500000000000000666e-01 9.596694148438321692e-01
9.550000000000000711e-01 9.627744014162593622e-01
9.599999999999999645e-01 9.658686017160954540e-01
9.649999999999999689e-01 9.689525692130468437e-01
9.699999999999999734e-01 9.720371418189776014e-01
9.749999999999999778e-01 9.751621361493508777e-01
9.799999999999999822e-01 9.782939034703388437e-01
9.849999999999999867e-01 9.814287741683219712e-01
9.899999999999999911e-01 9.845843981514187382e-01
9.949999999999999956e-01 9.877414461701293780e-01
1.000000000000000000e+00 9.909143079001715426e-01
1.005000000000000115e+00 9.940825279097929013e-01
1.010000000000000009e+00 9.972462312370585780e-01
1.015000000000000124e+00 1.000414746312707104e+00
1.020000000000000018e+00 1.003615015462193893e+00
1.024999999999999911e+00 1.006827390799406974e+00
1.030000000000000027e+00 1.010093883893407263e+00
1.034999999999999920e+00 1.013352087756287379e+00
1.040000000000000036e+00 1.016658256858324449e+00
1.044999999999999929e+00 1.019958005821379965e+00
1.050000000000000044e+00 1.023281809357583505e+00
1.054999999999999938e+00 1.026600061011019749e+00
1.060000000000000053e+00 1.029907670440186385e+00
1.064999999999999947e+00 1.033168493666309695e+00
1.070000000000000062e+00 1.036417541126192443e+00
1.074999999999999956e+00 1.039634811475267151e+00
1.080000000000000071e+00 1.042842577628632084e+00
1.084999999999999964e+00 1.046007184400033374e+00
1.090000000000000080e+00 1.049165340182109052e+00
1.094999999999999973e+00 1.052343959916921090e+00
1.100000000000000089e+00 1.055466476909060036e+00
1.104999999999999982e+00 1.058586861551119584e+00
1.110000000000000098e+00 1.061694833562170759e+00
1.114999999999999991e+00 1.064801885942379123e+00
1.120000000000000107e+00 1.067894235099527300e+00
1.125000000000000000e+00 1.070948834986100717e+00
1.130000000000000115e+00 1.074027445467014896e+00
1.135000000000000009e+00 1.077090820572895735e+00
1.140000000000000124e+00 1.080178538943102673e+00
1.145000000000000018e+00 1.083272695764305960e+00
1.150000000000000133e+00 1.086437000670361419e+00
1.155000000000000027e+00 1.089615242611745138e+00
1.159999999999999920e+00 1.092874691833389811e+00
1.165000000000000036e+00 1.096159674612897872e+00
1.169999999999999929e+00 1.099470596326185268e+00
1.175000000000000044e+00 1.102809714578015576e+00
1.179999999999999938e+00 1.106157260155018252e+00
1.185000000000000053e+00 1.109458383418301608e+00
1.189999999999999947e+00 1.112728028144611470e+00
1.195000000000000062e+00 1.115966767731931153e+00
1.199999999999999956e+00 1.119100998353138587e+00
1.205000000000000071e+00 1.122218851012361185e+00
1.209999999999999964e+00 1.125282587649505617e+00
1.215000000000000080e+00 1.128321493818064569e+00
1.219999999999999973e+00 1.131356504429514409e+00
1.225000000000000089e+00 1.134411433697760430e+00
1.229999999999999982e+00 1.137484057038087082e+00
1.235000000000000098e+00 1.140605771226704368e+00
1.239999999999999991e+00 1.143755141934389208e+00
1.245000000000000107e+00 1.146936736134309909e+00
1.250000000000000000e+00 1.150164511626313946e+00
1.255000000000000115e+00 1.153407715914555043e+00
1.260000000000000009e+00 1.156657791458501006e+00
1.265000000000000124e+00 1.159894749025767835e+00
1.270000000000000018e+00 1.163119123117300591e+00
1.275000000000000133e+00 1.166301416420365111e+00
1.280000000000000027e+00 1.169454113625503444e+00
1.284999999999999920e+00 1.172565357812200615e+00
1.290000000000000036e+00 1.175665168735184007e+00
1.294999999999999929e+00 1.178730742663199216e+00
1.300000000000000044e+00 1.181789275931021344e+00
1.304999999999999938e+00 1.184830167162964187e+00
1.310000000000000053e+00 1.187872182349049899e+00
1.314999999999999947e+00 1.190946807464404289e+00
1.320000000000000062e+00 1.194040023007375106e+00
1.324999999999999956e+00 1.197157920065570424e+00
1.330000000000000071e+00 1.200296563785268722e+00
1.334999999999999964e+00 1.203477637922245158e+00
1.340000000000000080e+00 1.206715215168091992e+00
1.344999999999999973e+00 1.209929683170358539e+00
1.350000000000000089e+00 1.213217359894320557e+00
1.354999999999999982e+00 1.216521933635968278e+00
1.360000000000000098e+00 1.219876267369760292e+00
1.364999999999999991e+00 1.223243466234568144e+00
1.370000000000000107e+00 1.226663476360922544e+00
1.375000000000000000e+00 1.230096376859785900e+00
1.380000000000000115e+00 1.233582581160729275e+00
1.385000000000000009e+00 1.237073057912962071e+00
1.390000000000000124e+00 1.240571697088230341e+00
1.395000000000000018e+00 1.244090956721697117e+00
1.400000000000000133e+00 1.247607399508842807e+00
1.405000000000000027e+00 1.251103238811775320e+00
1.409999999999999920e+00 1.254578565425990444e+00
1.415000000000000036e+00 1.258033829752271737e+00
1.419999999999999929e+00 1.261512014994378816e+00
1.425000000000000044e+00 1.264947169327511611e+00
1.429999999999999938e+00 1.268376682494557262e+00
1.435000000000000053e+00 1.271802194549264797e+00
1.439999999999999947e+00 1.275230814175476013e+00
1.445000000000000062e+00 1.278627386032871627e+00
1.449999999999999956e+00 1.282039819720666607e+00
1.455000000000000071e+00 1.285431960968691056e+00
1.459999999999999964e+00 1.288818849957940493e+00
1.465000000000000080e+00 1.292190765883149961e+00
1.469999999999999973e+00 1.295573869916694099e+00
1.475000000000000089e+00 1.298934186409675284e+00
1.479999999999999982e+00 1.302332149855788490e+00
1.485000000000000098e+00 1.305684691493006255e+00
1.489999999999999991e+00 1.309073558904316759e+00
1.495000000000000107e+00 1.312470745570657238e+00
1.500000000000000000e+00 1.315853176566679217e+00
1.505000000000000115e+00 1.319219413112501904e+00
1.510000000000000009e+00 1.322597389864916817e+00
1.515000000000000124e+00 1.325930937878961879e+00
1.520000000000000018e+00 1.329269779295667364e+00
1.525000000000000133e+00 1.332568421554001903e+00
1.530000000000000027e+00 1.335860561709968364e+00
1.535000000000000142e+00 1.339127026014491184e+00
1.540000000000000036e+00 1.342384837007204901e+00
1.544999999999999929e+00 1.345613691070380424e+00
1.550000000000000044e+00 1.348837320582604526e+00
1.554999999999999938e+00 1.352029223857706741e+00
1.560000000000000053e+00 1.355202612109086102e+00
1.564999999999999947e+00 1.358358245159874800e+00
1.570000000000000062e+00 1.361472418810378615e+00
1.574999999999999956e+00 1.364573331400514400e+00
1.580000000000000071e+00 1.367635612176963944e+00
1.584999999999999964e+00 1.370672922428106899e+00
1.590000000000000080e+00 1.373699401533720277e+00
1.594999999999999973e+00 1.376749046601631887e+00
1.600000000000000089e+00 1.379799836576224736e+00
1.604999999999999982e+00 1.382867639517106673e+00
1.610000000000000098e+00 1.385990345977273774e+00
1.614999999999999991e+00 1.389120133289808878e+00
1.620000000000000107e+00 1.392318320728217484e+00
1.625000000000000000e+00 1.395488160824476687e+00
1.630000000000000115e+00 1.398696849952879573e+00
1.635000000000000009e+00 1.401886566796648248e+00
1.640000000000000124e+00 1.405048697059188889e+00
1.645000000000000018e+00 1.408189530124973388e+00
1.650000000000000133e+00 1.411310699623834042e+00
1.655000000000000027e+00 1.414383621984800277e+00
1.660000000000000142e+00 1.417480514764667632e+00
1.665000000000000036e+00 1.420547583876756725e+00
1.669999999999999929e+00 1.423649727771870488e+00
1.675000000000000044e+00 1.426801281167950242e+00
1.679999999999999938e+00 1.429995388719210725e+00
1.685000000000000053e+00 1.433257317634313965e+00
1.689999999999999947e+00 1.436571812943445936e+00
1.695000000000000062e+00 1.439973474819947974e+00
1.699999999999999956e+00 1.443419831241424589e+00
1.705000000000000071e+00 1.446913872958470293e+00
1.709999999999999964e+00 1.450431117638581791e+00
1.715000000000000080e+00 1.453973476052351499e+00
1.719999999999999973e+00 1.457512268867863225e+00
1.725000000000000089e+00 1.461042252115434481e+00
1.729999999999999982e+00 1.464547935771288723e+00
1.735000000000000098e+00 1.468039382738807186e+00
1.739999999999999991e+00 1.471507918379116875e+00
1.745000000000000107e+00 1.474944485789296822e+00
1.750000000000000000e+00 1.478387170740469214e+00
1.755000000000000115e+00 1.481786177195766774e+00
1.760000000000000009e+00 1.485211905142750366e+00
1.765000000000000124e+00 1.488624558936068043e+00
1.770000000000000018e+00 1.492021493577074587e+00
1.775000000000000133e+00 1.495418251190921977e+00
1.780000000000000027e+00 1.498836455202538387e+00
1.785000000000000142e+00 1.502245040655304287e+00
1.790000000000000036e+00 1.505631099694275887e+00
1.794999999999999929e+00 1.508997648736719599e+00
1.800000000000000044e+00 1.512321244791583252e+00
1.804999999999999938e+00 1.515635039095167613e+00
1.810000000000000053e+00 1.518929153892277339e+00
1.814999999999999947e+00 1.522244667836851972e+00
1.820000000000000062e+00 1.525541584853074895e+00
1.824999999999999956e+00 1.528857893711291105e+00
1.830000000000000071e+00 1.532227597028491983e+00
1.834999999999999964e+00 1.535618690665657260e+00
1.840000000000000080e+00 1.539049377200010005e+00
1.844999999999999973e+00 1.542535385336343046e+00
1.850000000000000089e+00 1.546028569887747395e+00
1.854999999999999982e+00 1.549555357400631772e+00
1.860000000000000098e+00 1.553085798211225610e+00
1.864999999999999991e+00 1.556609463474309507e+00
1.870000000000000107e+00 1.560110329467963242e+00
1.875000000000000000e+00 1.563620896064862764e+00
1.880000000000000115e+00 1.567101191798502713e+00
1.885000000000000009e+00 1.570555118642767312e+00
1.890000000000000124e+00 1.573993602487369969e+00
1.895000000000000018e+00 1.577457936192990351e+00
1.900000000000000133e+00 1.580861265177271102e+00
1.905000000000000027e+00 1.584249620761469357e+00
1.910000000000000142e+00 1.587664270572155312e+00
1.915000000000000036e+00 1.591042754596054820e+00
1.919999999999999929e+00 1.594425518090765159e+00
1.925000000000000044e+00 1.597831037449757074e+00
1.929999999999999938e+00 1.601216455973563102e+00
1.935000000000000053e+00 1.604600903310813065e+00
1.939999999999999947e+00 1.607983399700811944e+00
1.945000000000000062e+00 1.611326347436916828e+00
1.949999999999999956e+00 1.614690821057674919e+00
1.955000000000000071e+00 1.618039447145963594e+00
1.959999999999999964e+00 1.621367878776968086e+00
1.965000000000000080e+00 1.624690882526247604e+00
1.969999999999999973e+00 1.628026079997597186e+00
1.975000000000000089e+00 1.631345916901954629e+00
1.979999999999999982e+00 1.634673602347399113e+00
1.985000000000000098e+00 1.638016059341547814e+00
1.989999999999999991e+00 1.641381055534198552e+00
