# time (ps)	msd (pm2)
0.000000000000000000e+00 7.621245616579968142e-05
5.000000000000000104e-03 3.432218263835218330e-03
1.000000000000000021e-02 1.309751807735761234e-02
1.499999999999999944e-02 2.788381141824725074e-02
2.000000000000000042e-02 4.622739064967161526e-02
2.500000000000000139e-02 6.638682494724744421e-02
2.999999999999999889e-02 8.668127787466886613e-02
3.500000000000000333e-02 1.059026135147879688e-01
4.000000000000000083e-02 1.232690285211604786e-01
4.499999999999999833e-02 1.383462792413029940e-01
5.000000000000000278e-02 1.512234749389385069e-01
5.500000000000000028e-02 1.622952209258906875e-01
5.999999999999999778e-02 1.720619058312167216e-01
6.500000000000000222e-02 1.810292619201998299e-01
7.000000000000000666e-02 1.897238270619173439e-01
7.499999999999999722e-02 1.984524774111024459e-01
8.000000000000000167e-02 2.074109498540021579e-01
8.500000000000000611e-02 2.167181087747470092e-01
8.999999999999999667e-02 2.262862454604465667e-01
9.500000000000000111e-02 2.360230346620893482e-01
1.000000000000000056e-01 2.457537321950511444e-01
1.049999999999999961e-01 2.553176919371299425e-01
1.100000000000000006e-01 2.646398431731811218e-01
1.150000000000000050e-01 2.735738878577955724e-01
1.199999999999999956e-01 2.820465739398655414e-01
1.250000000000000000e-01 2.900705833162316449e-01
1.300000000000000044e-01 2.977170288538159015e-01
1.350000000000000089e-01 3.049632857794895013e-01
1.400000000000000133e-01 3.119320879853167416e-01
1.449999999999999900e-01 3.186994575133415553e-01
1.499999999999999944e-01 3.253064011509170794e-01
1.549999999999999989e-01 3.318246620771617694e-01
1.600000000000000033e-01 3.383042747626356372e-01
1.650000000000000078e-01 3.447323352698788979e-01
1.700000000000000122e-01 3.510657390837596536e-01
1.750000000000000167e-01 3.573203841719306273e-01
1.799999999999999933e-01 3.634501833752610822e-01
1.849999999999999978e-01 3.694096106289024850e-01
1.900000000000000022e-01 3.751540272338007020e-01
1.950000000000000067e-01 3.806537937333828170e-01
2.000000000000000111e-01 3.860119533228738020e-01
2.050000000000000155e-01 3.912553494259789488e-01
2.099999999999999922e-01 3.963436783862299695e-01
2.149999999999999967e-01 4.013908910553738441e-01
2.200000000000000011e-01 4.064848432801899669e-01
2.250000000000000056e-01 4.116506213174323525e-01
2.300000000000000100e-01 4.169133174345458492e-01
2.350000000000000144e-01 4.222747721928583609e-01
2.399999999999999911e-01 4.277553718419270234e-01
2.449999999999999956e-01 4.332984849422104601e-01
2.500000000000000000e-01 4.388922730128379524e-01
2.550000000000000044e-01 4.444577889847264318e-01
2.600000000000000089e-01 4.500056651266578500e-01
2.650000000000000133e-01 4.555438197690537816e-01
2.700000000000000178e-01 4.610283941625250570e-01
2.750000000000000222e-01 4.664394569163644588e-01
2.800000000000000266e-01 4.717717491336307356e-01
2.850000000000000311e-01 4.770732916382113276e-01
2.899999999999999800e-01 4.823652678639921421e-01
2.949999999999999845e-01 4.876179566922660413e-01
2.999999999999999889e-01 4.928319957857625333e-01
3.049999999999999933e-01 4.980616542719723538e-01
3.099999999999999978e-01 5.032547769836208662e-01
3.150000000000000022e-01 5.084601525436216463e-01
3.200000000000000067e-01 5.136510321981384575e-01
3.250000000000000111e-01 5.188224024433014669e-01
3.300000000000000155e-01 5.239324360737896980e-01
3.350000000000000200e-01 5.290252985099711536e-01
3.400000000000000244e-01 5.340584474700177386e-01
3.450000000000000289e-01 5.390778763649005656e-01
3.500000000000000333e-01 5.440606345212940509e-01
3.549999999999999822e-01 5.490059058910696788e-01
3.599999999999999867e-01 5.539180832922268038e-01
3.649999999999999911e-01 5.588526078522262353e-01
3.699999999999999956e-01 5.638146435125696021e-01
3.750000000000000000e-01 5.688312490602178695e-01
3.800000000000000044e-01 5.739314564800123142e-01
3.850000000000000089e-01 5.790496215041740502e-01
3.900000000000000133e-01 5.842400573366930416e-01
3.950000000000000178e-01 5.894800370123766120e-01
4.000000000000000222e-01 5.947574889343693050e-01
4.050000000000000266e-01 6.000301522282520672e-01
4.100000000000000311e-01 6.053028293633910817e-01
4.150000000000000355e-01 6.105485484191018886e-01
4.199999999999999845e-01 6.156836431115273456e-01
4.249999999999999889e-01 6.207408873784537873e-01
4.299999999999999933e-01 6.256930329951536640e-01
4.349999999999999978e-01 6.304787720317319710e-01
4.400000000000000022e-01 6.351669343634859244e-01
4.450000000000000067e-01 6.396856806712952759e-01
4.500000000000000111e-01 6.440536565661514334e-01
4.550000000000000155e-01 6.483461752242565268e-01
4.600000000000000200e-01 6.525407542570828001e-01
4.650000000000000244e-01 6.567046057508950652e-01
4.700000000000000289e-01 6.608700326561439686e-01
4.750000000000000333e-01 6.650414295307625068e-01
4.799999999999999822e-01 6.692709417977825703e-01
4.849999999999999867e-01 6.735113149248993514e-01
4.899999999999999911e-01 6.778094153347680173e-01
4.949999999999999956e-01 6.821283782627969305e-01
5.000000000000000000e-01 6.864769920865214647e-01
5.050000000000000044e-01 6.908117452539949133e-01
5.100000000000000089e-01 6.951575830550005275e-01
5.150000000000000133e-01 6.994752957772905066e-01
5.200000000000000178e-01 7.038120581452482760e-01
5.250000000000000222e-01 7.081527786303173366e-01
5.300000000000000266e-01 7.124754352155755477e-01
5.350000000000000311e-01 7.168418513433444383e-01
5.400000000000000355e-01 7.212147871852251368e-01
5.450000000000000400e-01 7.255376862992800602e-01
5.500000000000000444e-01 7.298785048899065764e-01
5.550000000000000488e-01 7.341724369756227331e-01
5.600000000000000533e-01 7.384119644317942432e-01
5.650000000000000577e-01 7.425934027316913877e-01
5.700000000000000622e-01 7.467483542733446278e-01
5.750000000000000666e-01 7.508607149977134521e-01
5.799999999999999600e-01 7.549109904350239653e-01
5.849999999999999645e-01 7.589956562030252263e-01
5.899999999999999689e-01 7.630749478232905503e-01
5.949999999999999734e-01 7.672050353792402300e-01
5.999999999999999778e-01 7.713529719919529626e-01
6.049999999999999822e-01 7.755488511258885609e-01
6.099999999999999867e-01 7.797714630014210835e-01
6.149999999999999911e-01 7.839659949652041382e-01
6.199999999999999956e-01 7.881686978633950513e-01
6.250000000000000000e-01 7.923530131321718795e-01
6.300000000000000044e-01 7.964869616659752127e-01
6.350000000000000089e-01 8.005990354883727456e-01
6.400000000000000133e-01 8.046457000692520678e-01
6.450000000000000178e-01 8.086248839226801710e-01
6.500000000000000222e-01 8.125754073761735086e-01
6.550000000000000266e-01 8.165001428141551720e-01
6.600000000000000311e-01 8.204111829661782096e-01
6.650000000000000355e-01 8.243334353133831005e-01
6.700000000000000400e-01 8.282306309215630158e-01
6.750000000000000444e-01 8.321161220318408214e-01
6.800000000000000488e-01 8.360326060637626178e-01
6.850000000000000533e-01 8.399134753612270687e-01
6.900000000000000577e-01 8.437525177416119737e-01
6.950000000000000622e-01 8.475769865183113705e-01
7.000000000000000666e-01 8.513670099066835695e-01
7.049999999999999600e-01 8.551050017823734750e-01
7.099999999999999645e-01 8.588421290045555878e-01
7.149999999999999689e-01 8.625364057644885341e-01
7.199999999999999734e-01 8.662342280116851478e-01
7.249999999999999778e-01 8.699329342885848693e-01
7.299999999999999822e-01 8.736211453173508001e-01
7.349999999999999867e-01 8.773376811310342749e-01
7.399999999999999911e-01 8.810719667099573549e-01
7.449999999999999956e-01 8.848110729375167072e-01
7.500000000000000000e-01 8.885195652525537113e-01
7.550000000000000044e-01 8.922312913826450087e-01
7.600000000000000089e-01 8.959493173604045069e-01
7.650000000000000133e-01 8.996406381589133749e-01
7.700000000000000178e-01 9.033123794063244727e-01
7.750000000000000222e-01 9.069485294100568806e-01
7.800000000000000266e-01 9.105988710554775434e-01
7.850000000000000311e-01 9.142350310048024120e-01
7.900000000000000355e-01 9.178293272192081798e-01
7.950000000000000400e-01 9.214234631980625645e-01
8.000000000000000444e-01 9.250567206507381846e-01
8.050000000000000488e-01 9.287332039366920089e-01
8.100000000000000533e-01 9.323943497566263838e-01
8.150000000000000577e-01 9.361114989516892138e-01
8.200000000000000622e-01 9.397932262302233219e-01
8.250000000000000666e-01 9.435237137120066064e-01
8.300000000000000711e-01 9.472172710128115014e-01
8.349999999999999645e-01 9.508855721204507727e-01
8.399999999999999689e-01 9.545510015307410168e-01
8.449999999999999734e-01 9.582285985217117164e-01
8.499999999999999778e-01 9.618830381196760149e-01
8.549999999999999822e-01 9.654862484104730358e-01
8.599999999999999867e-01 9.691181670144032312e-01
8.649999999999999911e-01 9.727864391417108125e-01
8.699999999999999956e-01 9.763957332459114458e-01
8.750000000000000000e-01 9.800705651371520721e-01
8.800000000000000044e-01 9.837551793933073663e-01
8.850000000000000089e-01 9.874209441203417592e-01
8.900000000000000133e-01 9.911447678356265500e-01
8.950000000000000178e-01 9.949026497707593730e-01
9.000000000000000222e-01 9.986522452111342707e-01
9.050000000000000266e-01 1.002418640214287393e+00
9.100000000000000311e-01 1.006235066043993154e+00
9.150000000000000355e-01 1.010051451072780271e+00
9.200000000000000400e-01 1.013863102733374433e+00
9.250000000000000444e-01 1.017642333391138409e+00
9.300000000000000488e-01 1.021456648060347305e+00
9.350000000000000533e-01 1.025245680379408331e+00
9.400000000000000577e-01 1.028949423258873175e+00
9.450000000000000622e-01 1.032648242583997344e+00
9.500000000000000666e-01 1.036290875899756436e+00
9.550000000000000711e-01 1.039886045772679068e+00
9.599999999999999645e-01 1.043482731814476372e+00
9.649999999999999689e-01 1.047067033998324348e+00
9.699999999999999734e-01 1.050585425341154622e+00
9.749999999999999778e-01 1.054144474410694476e+00
9.799999999999999822e-01 1.057697795379833217e+00
9.849999999999999867e-01 1.061330477636420522e+00
9.899999999999999911e-01 1.064951481974604430e+00
9.949999999999999956e-01 1.068599528196300330e+00
1.000000000000000000e+00 1.072268127318551034e+00
1.005000000000000115e+00 1.075919602507214634e+00
1.010000000000000009e+00 1.079563639274413234e+00
1.015000000000000124e+00 1.083211063081205072e+00
1.020000000000000018e+00 1.086809432428763600e+00
1.024999999999999911e+00 1.090423317499333411e+00
1.030000000000000027e+00 1.094021393298950429e+00
1.034999999999999920e+00 1.097617395311709876e+00
1.040000000000000036e+00 1.101229669769346220e+00
1.044999999999999929e+00 1.104859084293833504e+00
1.050000000000000044e+00 1.108516200635154325e+00
1.054999999999999938e+00 1.112201062914859317e+00
1.060000000000000053e+00 1.115917059344516904e+00
1.064999999999999947e+00 1.119608982549648912e+00
1.070000000000000062e+00 1.123321787166849273e+00
1.074999999999999956e+00 1.127023676323804180e+00
1.080000000000000071e+00 1.130709147824398686e+00
1.084999999999999964e+00 1.134404338059237016e+00
1.090000000000000080e+00 1.138085893202263499e+00
1.094999999999999973e+00 1.141722493567543850e+00
1.100000000000000089e+00 1.145412026737307576e+00
1.104999999999999982e+00 1.149106792481949135e+00
1.110000000000000098e+00 1.152775574681134785e+00
1.114999999999999991e+00 1.156389903712246925e+00
1.120000000000000107e+00 1.160052413949363537e+00
1.125000000000000000e+00 1.163702078185812727e+00
1.130000000000000115e+00 1.167296432878594192e+00
1.135000000000000009e+00 1.170883910286867557e+00
1.140000000000000124e+00 1.174442209769061884e+00
1.145000000000000018e+00 1.177984226483262065e+00
1.150000000000000133e+00 1.181470729452988477e+00
1.155000000000000027e+00 1.184983575368023567e+00
1.159999999999999920e+00 1.188493620447070631e+00
1.165000000000000036e+00 1.192010909110547301e+00
1.169999999999999929e+00 1.195498043559662715e+00
1.175000000000000044e+00 1.198993047103324550e+00
1.179999999999999938e+00 1.202449107117866900e+00
1.185000000000000053e+00 1.205911396829226989e+00
1.189999999999999947e+00 1.209372886521128176e+00
1.195000000000000062e+00 1.212821014740925296e+00
1.199999999999999956e+00 1.216303197041952888e+00
1.205000000000000071e+00 1.219764505509729480e+00
1.209999999999999964e+00 1.223273205963563370e+00
1.215000000000000080e+00 1.226772342626294199e+00
1.219999999999999973e+00 1.230310170184439444e+00
1.225000000000000089e+00 1.233893999408176345e+00
1.229999999999999982e+00 1.237491488106726933e+00
1.235000000000000098e+00 1.241104062127798446e+00
1.239999999999999991e+00 1.244729576076938127e+00
1.245000000000000107e+00 1.248333813298158068e+00
1.250000000000000000e+00 1.251924808875815476e+00
1.255000000000000115e+00 1.255505783870523695e+00
1.260000000000000009e+00 1.259003163576283724e+00
1.265000000000000124e+00 1.262499850310691674e+00
1.270000000000000018e+00 1.265937968128371338e+00
1.275000000000000133e+00 1.269331159832258749e+00
1.280000000000000027e+00 1.272756917066076188e+00
1.284999999999999920e+00 1.276155312583515666e+00
1.290000000000000036e+00 1.279535609836726984e+00
1.294999999999999929e+00 1.282977551679308048e+00
1.300000000000000044e+00 1.286453036736574296e+00
1.304999999999999938e+00 1.289934646684105957e+00
1.310000000000000053e+00 1.293463380058835765e+00
1.314999999999999947e+00 1.296973688682637071e+00
1.320000000000000062e+00 1.300453891369678372e+00
1.324999999999999956e+00 1.303919021287555768e+00
1.330000000000000071e+00 1.307318508938657198e+00
1.334999999999999964e+00 1.310671484686030341e+00
1.340000000000000080e+00 1.313986560647279811e+00
1.344999999999999973e+00 1.317246953403788945e+00
1.350000000000000089e+00 1.320465923313740131e+00
1.354999999999999982e+00 1.323715011887406146e+00
1.360000000000000098e+00 1.326951521083631347e+00
1.364999999999999991e+00 1.330202411683751196e+00
1.370000000000000107e+00 1.333483138350917585e+00
1.375000000000000000e+00 1.336869357937980451e+00
1.380000000000000115e+00 1.340270284032689219e+00
1.385000000000000009e+00 1.343736622780897338e+00
1.390000000000000124e+00 1.347275463439578047e+00
1.395000000000000018e+00 1.350778223110006726e+00
1.400000000000000133e+00 1.354349239349305067e+00
1.405000000000000027e+00 1.357905954457536479e+00
1.409999999999999920e+00 1.361485419703150290e+00
1.415000000000000036e+00 1.365018258027346221e+00
1.419999999999999929e+00 1.368552511641224045e+00
1.425000000000000044e+00 1.372013657601426573e+00
1.429999999999999938e+00 1.375460180901935558e+00
1.435000000000000053e+00 1.378898293565832489e+00
1.439999999999999947e+00 1.382246810278171312e+00
1.445000000000000062e+00 1.385654577388037545e+00
1.449999999999999956e+00 1.389000949497133375e+00
1.455000000000000071e+00 1.392343365243484232e+00
1.459999999999999964e+00 1.395694254933208311e+00
1.465000000000000080e+00 1.399072701285449583e+00
1.469999999999999973e+00 1.402430493228396857e+00
1.475000000000000089e+00 1.405849917991239595e+00
1.479999999999999982e+00 1.409324887811708171e+00
1.485000000000000098e+00 1.412841874016105059e+00
1.489999999999999991e+00 1.416380291101083433e+00
1.495000000000000107e+00 1.419940969438270972e+00
1.500000000000000000e+00 1.423543579362050560e+00
1.505000000000000115e+00 1.427144829588345987e+00
1.510000000000000009e+00 1.430807934011832039e+00
1.515000000000000124e+00 1.434435926789303872e+00
1.520000000000000018e+00 1.438075054795078467e+00
1.525000000000000133e+00 1.441734597647255089e+00
1.530000000000000027e+00 1.445373439171972807e+00
1.535000000000000142e+00 1.449004260145561940e+00
1.540000000000000036e+00 1.452624204324583834e+00
1.544999999999999929e+00 1.456243544971015380e+00
1.550000000000000044e+00 1.459873602582008045e+00
1.554999999999999938e+00 1.463506944886394212e+00
1.560000000000000053e+00 1.467107659331813752e+00
1.564999999999999947e+00 1.470709836555279981e+00
1.570000000000000062e+00 1.474328223058848142e+00
1.574999999999999956e+00 1.477967713979400521e+00
1.580000000000000071e+00 1.481606540664035743e+00
1.584999999999999964e+00 1.485279348227066976e+00
1.590000000000000080e+00 1.488947482576784109e+00
1.594999999999999973e+00 1.492636473628156990e+00
1.600000000000000089e+00 1.496302391617634786e+00
1.604999999999999982e+00 1.499961957617388153e+00
1.610000000000000098e+00 1.503619672741931979e+00
1.614999999999999991e+00 1.507240922011684692e+00
1.620000000000000107e+00 1.510851224999133269e+00
1.625000000000000000e+00 1.514426020676021167e+00
1.630000000000000115e+00 1.517978077533270298e+00
1.635000000000000009e+00 1.521490659705774018e+00
1.640000000000000124e+00 1.524989833812677276e+00
1.645000000000000018e+00 1.528516368907482326e+00
1.650000000000000133e+00 1.532016427233981570e+00
1.655000000000000027e+00 1.535542235704674185e+00
1.660000000000000142e+00 1.539081291729655687e+00
1.665000000000000036e+00 1.542654392816281472e+00
1.669999999999999929e+00 1.546234723823738610e+00
1.675000000000000044e+00 1.549818113559858324e+00
1.679999999999999938e+00 1.553448092893607191e+00
1.685000000000000053e+00 1.557077259985020001e+00
1.689999999999999947e+00 1.560713055303951657e+00
1.695000000000000062e+00 1.564335918121700475e+00
1.699999999999999956e+00 1.567959906427264904e+00
1.705000000000000071e+00 1.571581703373847061e+00
1.709999999999999964e+00 1.575140017346998711e+00
1.715000000000000080e+00 1.578757042054299120e+00
1.719999999999999973e+00 1.582339155855578161e+00
1.725000000000000089e+00 1.585940721190514546e+00
1.729999999999999982e+00 1.589501269099967695e+00
1.735000000000000098e+00 1.593083781329782234e+00
1.739999999999999991e+00 1.596674886479068967e+00
1.745000000000000107e+00 1.600249787527990186e+00
1.750000000000000000e+00 1.603827602737483593e+00
1.755000000000000115e+00 1.607415889667580533e+00
1.760000000000000009e+00 1.611013653461692119e+00
1.765000000000000124e+00 1.614579039710413166e+00
1.770000000000000018e+00 1.618148936710196439e+00
1.775000000000000133e+00 1.621703775934529856e+00
1.780000000000000027e+00 1.625283967054897527e+00
1.785000000000000142e+00 1.628856951289797017e+00
1.790000000000000036e+00 1.632484114181238510e+00
1.794999999999999929e+00 1.636133127744795246e+00
1.800000000000000044e+00 1.639783229097132367e+00
1.804999999999999938e+00 1.643521909071746112e+00
1.810000000000000053e+00 1.647248258558011491e+00
1.814999999999999947e+00 1.651040435218347646e+00
1.820000000000000062e+00 1.654856593713670998e+00
1.824999999999999956e+00 1.658678869906752062e+00
1.830000000000000071e+00 1.662537835926744867e+00
1.834999999999999964e+00 1.666377826140194918e+00
1.840000000000000080e+00 1.670222682604766584e+00
1.844999999999999973e+00 1.674021826250494671e+00
1.850000000000000089e+00 1.677819535307910614e+00
1.854999999999999982e+00 1.681583032010738110e+00
1.860000000000000098e+00 1.685290171613084809e+00
1.864999999999999991e+00 1.688998048290349718e+00
1.870000000000000107e+00 1.692692365977115809e+00
1.875000000000000000e+00 1.696395602214928022e+00
1.880000000000000115e+00 1.700105632437148184e+00
1.885000000000000009e+00 1.703882980264960878e+00
1.890000000000000124e+00 1.707651051935676900e+00
1.895000000000000018e+00 1.711486994733474321e+00
1.900000000000000133e+00 1.715317885221210759e+00
1.905000000000000027e+00 1.719177203271738952e+00
1.910000000000000142e+00 1.722996604599853487e+00
1.915000000000000036e+00 1.726860026541526816e+00
1.919999999999999929e+00 1.730691010333522684e+00
1.925000000000000044e+00 1.734476781258379674e+00
1.929999999999999938e+00 1.738195353406263299e+00
1.935000000000000053e+00 1.741909713476319066e+00
1.939999999999999947e+00 1.745631346065350531e+00
1.945000000000000062e+00 1.749281814031970139e+00
1.949999999999999956e+00 1.752947818336560770e+00
1.955000000000000071e+00 1.756595504157867138e+00
1.959999999999999964e+00 1.760258056636455182e+00
1.965000000000000080e+00 1.763904291861600360e+00
1.969999999999999973e+00 1.767562662132573292e+00
1.975000000000000089e+00 1.771239453343678605e+00
1.979999999999999982e+00 1.774918361507078046e+00
1.985000000000000098e+00 1.778619200239231812e+00
1.989999999999999991e+00 1.782278585132012871e+00
