# time (ps)	msd (A2)
0.000000000000000000e+00 7.108998208623282731e-06
5.000000000000000104e-03 3.343821856021165270e-03
1.000000000000000021e-02 1.290717463860975578e-02
1.499999999999999944e-02 2.758540948519054223e-02
2.000000000000000042e-02 4.578462423097607453e-02
2.500000000000000139e-02 6.573245547071970840e-02
2.999999999999999889e-02 8.586215878182106020e-02
3.500000000000000333e-02 1.048978119934967507e-01
4.000000000000000083e-02 1.220616391574188137e-01
4.499999999999999833e-02 1.370298363685784893e-01
5.000000000000000278e-02 1.499091180072301133e-01
5.500000000000000028e-02 1.610334540007877235e-01
5.999999999999999778e-02 1.709637012211551177e-01
6.500000000000000222e-02 1.802062576706379426e-01
7.000000000000000666e-02 1.892325383201068911e-01
7.499999999999999722e-02 1.983566617311479652e-01
8.000000000000000167e-02 2.077623169170114970e-01
8.500000000000000611e-02 2.174394307018032713e-01
8.999999999999999667e-02 2.273441705711274352e-01
9.500000000000000111e-02 2.372855918915970086e-01
1.000000000000000056e-01 2.471314191470445065e-01
1.049999999999999961e-01 2.567098335371798545e-01
1.100000000000000006e-01 2.659163723795457401e-01
1.150000000000000050e-01 2.746620334465291191e-01
1.199999999999999956e-01 2.829399100340059814e-01
1.250000000000000000e-01 2.907531449498026443e-01
1.300000000000000044e-01 2.981751535763872973e-01
1.350000000000000089e-01 3.052371278018333745e-01
1.400000000000000133e-01 3.120140431488163668e-01
1.449999999999999900e-01 3.185603636651283543e-01
1.499999999999999944e-01 3.249533737058345473e-01
1.549999999999999989e-01 3.312253517185541063e-01
1.600000000000000033e-01 3.374050632042442377e-01
1.650000000000000078e-01 3.434991450974434479e-01
1.700000000000000122e-01 3.495058011314917112e-01
1.750000000000000167e-01 3.553869267023017642e-01
1.799999999999999933e-01 3.611784045222958817e-01
1.849999999999999978e-01 3.668115522482810476e-01
1.900000000000000022e-01 3.723091183839555840e-01
1.950000000000000067e-01 3.776553285530934723e-01
2.000000000000000111e-01 3.828833481294124930e-01
2.050000000000000155e-01 3.880446298214771939e-01
2.099999999999999922e-01 3.931422123688251280e-01
2.149999999999999967e-01 3.982625913061809686e-01
2.200000000000000011e-01 4.034320753028049489e-01
2.250000000000000056e-01 4.086806867575873414e-01
2.300000000000000100e-01 4.140436659790744933e-01
2.350000000000000144e-01 4.195065093382425725e-01
2.399999999999999911e-01 4.250701478457232785e-01
2.449999999999999956e-01 4.306725368877226678e-01
2.500000000000000000e-01 4.363158614406829616e-01
2.550000000000000044e-01 4.419394288323603148e-01
2.600000000000000089e-01 4.475153107042418310e-01
2.650000000000000133e-01 4.530134294269448358e-01
2.700000000000000178e-01 4.584301461255937959e-01
2.750000000000000222e-01 4.637539135666456924e-01
2.800000000000000266e-01 4.690023027541952438e-01
2.850000000000000311e-01 4.741727507518391227e-01
2.899999999999999800e-01 4.793083868585091278e-01
2.949999999999999845e-01 4.844105924166049459e-01
2.999999999999999889e-01 4.894722943524107417e-01
3.049999999999999933e-01 4.945354401839126557e-01
3.099999999999999978e-01 4.995868883782237369e-01
3.150000000000000022e-01 5.046146672761425700e-01
3.200000000000000067e-01 5.096236536475710066e-01
3.250000000000000111e-01 5.145897634258274067e-01
3.300000000000000155e-01 5.195198983902473699e-01
3.350000000000000200e-01 5.243759550035672623e-01
3.400000000000000244e-01 5.291877419812077710e-01
3.450000000000000289e-01 5.339211495369372562e-01
3.500000000000000333e-01 5.385996497202037991e-01
3.549999999999999822e-01 5.432296897271884362e-01
3.599999999999999867e-01 5.477850545212944455e-01
3.649999999999999911e-01 5.522940748295276370e-01
3.699999999999999956e-01 5.567398729637020871e-01
3.750000000000000000e-01 5.611647957823291399e-01
3.800000000000000044e-01 5.655598912241893705e-01
3.850000000000000089e-01 5.699436736735448150e-01
3.900000000000000133e-01 5.743189375463633173e-01
3.950000000000000178e-01 5.787151536048952272e-01
4.000000000000000222e-01 5.830920790129320297e-01
4.050000000000000266e-01 5.874877429544206331e-01
4.100000000000000311e-01 5.919126145226346614e-01
4.150000000000000355e-01 5.963286412688977300e-01
4.199999999999999845e-01 6.007348649104442551e-01
4.249999999999999889e-01 6.051250813775136406e-01
4.299999999999999933e-01 6.094548143468406787e-01
4.349999999999999978e-01 6.137269937047130641e-01
4.400000000000000022e-01 6.179268886221175316e-01
4.450000000000000067e-01 6.220108271343781636e-01
4.500000000000000111e-01 6.260287059523853559e-01
4.550000000000000155e-01 6.299685167109189132e-01
4.600000000000000200e-01 6.338618330917381583e-01
4.650000000000000244e-01 6.377225929478037569e-01
4.700000000000000289e-01 6.415990622591286607e-01
4.750000000000000333e-01 6.454699173034791349e-01
4.799999999999999822e-01 6.493837556216169871e-01
4.849999999999999867e-01 6.533135584465389334e-01
4.899999999999999911e-01 6.572602193221649403e-01
4.949999999999999956e-01 6.612099040838582686e-01
5.000000000000000000e-01 6.651427982617083012e-01
5.050000000000000044e-01 6.690543699142782463e-01
5.100000000000000089e-01 6.729114852226437682e-01
5.150000000000000133e-01 6.767226817520106685e-01
5.200000000000000178e-01 6.804997040379774376e-01
5.250000000000000222e-01 6.842364489487396950e-01
5.300000000000000266e-01 6.879340200274679518e-01
5.350000000000000311e-01 6.916164887836914188e-01
5.400000000000000355e-01 6.952850115385903473e-01
5.450000000000000400e-01 6.989168828638652187e-01
5.500000000000000444e-01 7.025757023214338481e-01
5.550000000000000488e-01 7.062072394573227774e-01
5.600000000000000533e-01 7.098286376503354367e-01
5.650000000000000577e-01 7.134254998244221602e-01
5.700000000000000622e-01 7.170364419711708903e-01
5.750000000000000666e-01 7.206050680444402445e-01
5.799999999999999600e-01 7.241927239927011817e-01
5.849999999999999645e-01 7.277665481699617800e-01
5.899999999999999689e-01 7.313383020116814848e-01
5.949999999999999734e-01 7.349243000162758443e-01
5.999999999999999778e-01 7.385021946703728135e-01
6.049999999999999822e-01 7.420596676483599552e-01
6.099999999999999867e-01 7.456102276370876192e-01
6.149999999999999911e-01 7.491457962215956057e-01
6.199999999999999956e-01 7.526404752321248504e-01
6.250000000000000000e-01 7.560968091020866533e-01
6.300000000000000044e-01 7.595457999124072268e-01
6.350000000000000089e-01 7.629517300421971848e-01
6.400000000000000133e-01 7.663329818462512044e-01
6.450000000000000178e-01 7.697119189864226607e-01
6.500000000000000222e-01 7.731043900755594223e-01
6.550000000000000266e-01 7.765314643713040477e-01
6.600000000000000311e-01 7.799825356072623839e-01
6.650000000000000355e-01 7.834994985462913064e-01
6.700000000000000400e-01 7.870575226215836828e-01
6.750000000000000444e-01 7.906624319892688879e-01
6.800000000000000488e-01 7.943183600539462930e-01
6.850000000000000533e-01 7.980017575678851616e-01
6.900000000000000577e-01 8.017113119893584106e-01
6.950000000000000622e-01 8.054328287775317508e-01
7.000000000000000666e-01 8.091432705967185335e-01
7.049999999999999600e-01 8.128167791351863514e-01
7.099999999999999645e-01 8.164781969323976485e-01
7.149999999999999689e-01 8.201139877057758154e-01
7.199999999999999734e-01 8.237271269634390825e-01
7.249999999999999778e-01 8.273249774993223227e-01
7.299999999999999822e-01 8.309000395554148044e-01
7.349999999999999867e-01 8.344504169098160284e-01
7.399999999999999911e-01 8.380131512199574528e-01
7.449999999999999956e-01 8.415458800268288408e-01
7.500000000000000000e-01 8.450950372878441863e-01
7.550000000000000044e-01 8.486397727209716857e-01
7.600000000000000089e-01 8.521793284972795091e-01
7.650000000000000133e-01 8.557016386537972252e-01
7.700000000000000178e-01 8.592142140722168753e-01
7.750000000000000222e-01 8.626866258510134111e-01
7.800000000000000266e-01 8.661313664815027957e-01
7.850000000000000311e-01 8.695252744625694419e-01
7.900000000000000355e-01 8.728861671242823528e-01
7.950000000000000400e-01 8.762088752018692972e-01
8.000000000000000444e-01 8.794954109584972590e-01
8.050000000000000488e-01 8.827602872196842476e-01
8.100000000000000533e-01 8.860218675889228734e-01
8.150000000000000577e-01 8.892858704137019954e-01
8.200000000000000622e-01 8.925330722604774003e-01
8.250000000000000666e-01 8.957661011473726509e-01
8.300000000000000711e-01 8.990144518727417600e-01
8.349999999999999645e-01 9.022423572601546704e-01
8.399999999999999689e-01 9.054734073096032398e-01
8.449999999999999734e-01 9.086866909321370533e-01
8.499999999999999778e-01 9.118865272525357168e-01
8.549999999999999822e-01 9.150578331737434512e-01
8.599999999999999867e-01 9.182242416719240685e-01
8.649999999999999911e-01 9.213483176406919162e-01
8.699999999999999956e-01 9.244843062482925866e-01
8.750000000000000000e-01 9.275785093810814397e-01
8.800000000000000044e-01 9.306664516163629663e-01
8.850000000000000089e-01 9.337688020485760410e-01
8.900000000000000133e-01 9.368793578270752098e-01
8.950000000000000178e-01 9.399942096873660224e-01
9.000000000000000222e-01 9.431368756858943270e-01
9.050000000000000266e-01 9.462833836054178605e-01
9.100000000000000311e-01 9.494759779380217424e-01
9.150000000000000355e-01 9.526476166971121762e-01
9.200000000000000400e-01 9.558463983524596586e-01
9.250000000000000444e-01 9.590215886794460909e-01
9.300000000000000488e-01 9.621911038823621753e-01
9.350000000000000533e-01 9.653358511940660636e-01
9.400000000000000577e-01 9.684503734577122325e-01
9.450000000000000622e-01 9.715462531083761677e-01
9.500000000000000666e-01 9.746176944745433834e-01
9.550000000000000711e-01 9.776918731702860521e-01
9.599999999999999645e-01 9.807584523584145231e-01
9.649999999999999689e-01 9.838292340283009141e-01
9.699999999999999734e-01 9.869021976378898886e-01
9.749999999999999778e-01 9.900112649804920784e-01
9.799999999999999822e-01 9.931216871757183595e-01
9.849999999999999867e-01 9.962425992868105817e-01
9.899999999999999911e-01 9.993792707550713805e-01
9.949999999999999956e-01 1.002511172215169388e+00
1.000000000000000000e+00 1.005656144754252912e+00
1.005000000000000115e+00 1.008802243723915915e+00
1.010000000000000009e+00 1.011943512625555597e+00
1.015000000000000124e+00 1.015098464078991958e+00
1.020000000000000018e+00 1.018276602523798813e+00
1.024999999999999911e+00 1.021466000550017350e+00
1.030000000000000027e+00 1.024702386214611183e+00
1.034999999999999920e+00 1.027930599889033791e+00
1.040000000000000036e+00 1.031193967607764828e+00
1.044999999999999929e+00 1.034451024597253133e+00
1.050000000000000044e+00 1.037715735652476434e+00
1.054999999999999938e+00 1.040974431726669813e+00
1.060000000000000053e+00 1.044209127352633049e+00
1.064999999999999947e+00 1.047407957657770394e+00
1.070000000000000062e+00 1.050593456224512723e+00
1.074999999999999956e+00 1.053744431025441797e+00
1.080000000000000071e+00 1.056885452016468774e+00
1.084999999999999964e+00 1.059991819704102278e+00
1.090000000000000080e+00 1.063093110837787014e+00
1.094999999999999973e+00 1.066197972830732255e+00
1.100000000000000089e+00 1.069266284091439312e+00
1.104999999999999982e+00 1.072325489369011509e+00
1.110000000000000098e+00 1.075381450548139606e+00
1.114999999999999991e+00 1.078427448279327683e+00
1.120000000000000107e+00 1.081460302637332171e+00
1.125000000000000000e+00 1.084471785887384243e+00
1.130000000000000115e+00 1.087490314181212891e+00
1.135000000000000009e+00 1.090507621244919845e+00
1.140000000000000124e+00 1.093533267690239619e+00
1.145000000000000018e+00 1.096563998943791640e+00
1.150000000000000133e+00 1.099645759137506396e+00
1.155000000000000027e+00 1.102735635874420250e+00
1.159999999999999920e+00 1.105881435707699589e+00
1.165000000000000036e+00 1.109048505295572085e+00
1.169999999999999929e+00 1.112228455406112815e+00
1.175000000000000044e+00 1.115423550968671185e+00
1.179999999999999938e+00 1.118621652108981124e+00
1.185000000000000053e+00 1.121778125697259654e+00
1.189999999999999947e+00 1.124913369558198761e+00
1.195000000000000062e+00 1.128024904458901467e+00
1.199999999999999956e+00 1.131060810157756613e+00
1.205000000000000071e+00 1.134082476098262404e+00
1.209999999999999964e+00 1.137069331367923430e+00
1.215000000000000080e+00 1.140030147889288692e+00
1.219999999999999973e+00 1.142992458533073963e+00
1.225000000000000089e+00 1.145958490064115987e+00
1.229999999999999982e+00 1.148948203428339587e+00
1.235000000000000098e+00 1.151967019946488646e+00
1.239999999999999991e+00 1.155009853869140901e+00
1.245000000000000107e+00 1.158075336839035741e+00
1.250000000000000000e+00 1.161182679160859932e+00
1.255000000000000115e+00 1.164298203633689965e+00
1.260000000000000009e+00 1.167427595500743598e+00
1.265000000000000124e+00 1.170550275965374754e+00
1.270000000000000018e+00 1.173673906489702157e+00
1.275000000000000133e+00 1.176761527890008097e+00
1.280000000000000027e+00 1.179842134409113008e+00
1.284999999999999920e+00 1.182893601070871048e+00
1.290000000000000036e+00 1.185952052451334504e+00
1.294999999999999929e+00 1.188990828079601547e+00
1.300000000000000044e+00 1.192032277920697991e+00
1.304999999999999938e+00 1.195062036583775411e+00
1.310000000000000053e+00 1.198106287132152614e+00
1.314999999999999947e+00 1.201169027456447047e+00
1.320000000000000062e+00 1.204247687673348111e+00
1.324999999999999956e+00 1.207342395898511000e+00
1.330000000000000071e+00 1.210450058127681805e+00
1.334999999999999964e+00 1.213581396092018316e+00
1.340000000000000080e+00 1.216755550215152359e+00
1.344999999999999973e+00 1.219909673995084320e+00
1.350000000000000089e+00 1.223113574259554470e+00
1.354999999999999982e+00 1.226329833344879550e+00
1.360000000000000098e+00 1.229577760386426855e+00
1.364999999999999991e+00 1.232831301485765474e+00
1.370000000000000107e+00 1.236121483040224289e+00
1.375000000000000000e+00 1.239416851493282179e+00
1.380000000000000115e+00 1.242748828369070857e+00
1.385000000000000009e+00 1.246080499150239440e+00
1.390000000000000124e+00 1.249427914354173552e+00
1.395000000000000018e+00 1.252790827591623524e+00
1.400000000000000133e+00 1.256160774439448513e+00
1.405000000000000027e+00 1.259523818814765050e+00
1.409999999999999920e+00 1.262877191660662257e+00
1.415000000000000036e+00 1.266230144137782121e+00
1.419999999999999929e+00 1.269595773262138572e+00
1.425000000000000044e+00 1.272936485929494266e+00
1.429999999999999938e+00 1.276275277171011302e+00
1.435000000000000053e+00 1.279609188552261356e+00
1.439999999999999947e+00 1.282939986390375653e+00
1.445000000000000062e+00 1.286247551701700687e+00
1.449999999999999956e+00 1.289558379007816891e+00
1.455000000000000071e+00 1.292851499343133037e+00
1.459999999999999964e+00 1.296144045762765762e+00
1.465000000000000080e+00 1.299423942999580195e+00
1.469999999999999973e+00 1.302717346136777365e+00
1.475000000000000089e+00 1.305995881936700131e+00
1.479999999999999982e+00 1.309307271819157181e+00
1.485000000000000098e+00 1.312590924772221168e+00
1.489999999999999991e+00 1.315897182103166418e+00
1.495000000000000107e+00 1.319211971079333745e+00
1.500000000000000000e+00 1.322505582159944737e+00
1.505000000000000115e+00 1.325779723305730240e+00
1.510000000000000009e+00 1.329052225433157597e+00
1.515000000000000124e+00 1.332268977979421010e+00
1.520000000000000018e+00 1.335480835123482146e+00
1.525000000000000133e+00 1.338651146518578861e+00
1.530000000000000027e+00 1.341809018810571130e+00
1.535000000000000142e+00 1.344941483382165570e+00
1.540000000000000036e+00 1.348071744210633804e+00
1.544999999999999929e+00 1.351195125370093564e+00
1.550000000000000044e+00 1.354325372994196641e+00
1.554999999999999938e+00 1.357454334392325990e+00
1.560000000000000053e+00 1.360592252514280176e+00
1.564999999999999947e+00 1.363729904417074978e+00
1.570000000000000062e+00 1.366859499910750841e+00
1.574999999999999956e+00 1.369988329933615079e+00
1.580000000000000071e+00 1.373108191766746700e+00
1.584999999999999964e+00 1.376203611127625237e+00
1.590000000000000080e+00 1.379295334513678029e+00
1.594999999999999973e+00 1.382395282489577548e+00
1.600000000000000089e+00 1.385489865916593955e+00
1.604999999999999982e+00 1.388580449748019197e+00
1.610000000000000098e+00 1.391708211278456453e+00
1.614999999999999991e+00 1.394831226189448659e+00
1.620000000000000107e+00 1.397996759389942945e+00
1.625000000000000000e+00 1.401149540843604102e+00
1.630000000000000115e+00 1.404333852336951738e+00
1.635000000000000009e+00 1.407512637148852441e+00
1.640000000000000124e+00 1.410690562757501043e+00
1.645000000000000018e+00 1.413863379890617500e+00
1.650000000000000133e+00 1.417045576083471259e+00
1.655000000000000027e+00 1.420202653022642592e+00
1.660000000000000142e+00 1.423388275792573099e+00
1.665000000000000036e+00 1.426560170992461130e+00
1.669999999999999929e+00 1.429757663961099157e+00
1.675000000000000044e+00 1.432986337897726337e+00
1.679999999999999938e+00 1.436219937482038800e+00
1.685000000000000053e+00 1.439490365040112296e+00
1.689999999999999947e+00 1.442782859478246360e+00
1.695000000000000062e+00 1.446116113221896926e+00
1.699999999999999956e+00 1.449465509653665274e+00
1.705000000000000071e+00 1.452839962741323099e+00
1.709999999999999964e+00 1.456226433740328785e+00
1.715000000000000080e+00 1.459634064951190746e+00
1.719999999999999973e+00 1.463042216161762665e+00
1.725000000000000089e+00 1.466451026131556645e+00
1.729999999999999982e+00 1.469852996823788560e+00
1.735000000000000098e+00 1.473240840617374703e+00
1.739999999999999991e+00 1.476626143772184818e+00
1.745000000000000107e+00 1.479985118790017928e+00
1.750000000000000000e+00 1.483347941191462738e+00
1.755000000000000115e+00 1.486680846231219322e+00
1.760000000000000009e+00 1.490029679712357336e+00
1.765000000000000124e+00 1.493363298387656357e+00
1.770000000000000018e+00 1.496692847011173777e+00
1.775000000000000133e+00 1.500008982111082689e+00
1.780000000000000027e+00 1.503341734847240874e+00
1.785000000000000142e+00 1.506662962886771373e+00
1.790000000000000036e+00 1.509967913910718273e+00
1.794999999999999929e+00 1.513258645546121661e+00
1.800000000000000044e+00 1.516522247674201296e+00
1.804999999999999938e+00 1.519768878904514287e+00
1.810000000000000053e+00 1.523015524864580028e+00
1.814999999999999947e+00 1.526267334166370615e+00
1.820000000000000062e+00 1.529515307928939860e+00
1.824999999999999956e+00 1.532771109782196772e+00
1.830000000000000071e+00 1.536074045412446409e+00
1.834999999999999964e+00 1.539391048677861695e+00
1.840000000000000080e+00 1.542734333788236212e+00
1.844999999999999973e+00 1.546120596322364982e+00
1.850000000000000089e+00 1.549508574243247949e+00
1.854999999999999982e+00 1.552916210582979462e+00
1.860000000000000098e+00 1.556324736404089082e+00
1.864999999999999991e+00 1.559716683889247113e+00
1.870000000000000107e+00 1.563089167616691144e+00
1.875000000000000000e+00 1.566457371590330938e+00
1.880000000000000115e+00 1.569797844029929168e+00
1.885000000000000009e+00 1.573121415482673369e+00
1.890000000000000124e+00 1.576434088804359090e+00
1.895000000000000018e+00 1.579767508869984738e+00
1.900000000000000133e+00 1.583068075994298773e+00
1.905000000000000027e+00 1.586363667514588682e+00
1.910000000000000142e+00 1.589689942939053857e+00
1.915000000000000036e+00 1.593002498277331425e+00
1.919999999999999929e+00 1.596333984671771455e+00
1.925000000000000044e+00 1.599676901367343085e+00
1.929999999999999938e+00 1.603018921740736680e+00
1.935000000000000053e+00 1.606364968603989807e+00
1.939999999999999947e+00 1.609725224512709829e+00
1.945000000000000062e+00 1.613057271777700974e+00
1.949999999999999956e+00 1.616406308867924357e+00
1.955000000000000071e+00 1.619747229617687134e+00
1.959999999999999964e+00 1.623075967019430133e+00
1.965000000000000080e+00 1.626395325593116281e+00
1.969999999999999973e+00 1.629724428304775152e+00
1.975000000000000089e+00 1.633036179343809513e+00
1.979999999999999982e+00 1.636347600418596615e+00
1.985000000000000098e+00 1.639662792001764124e+00
1.989999999999999991e+00 1.642991527978021837e+00
