# time (ps)	msd (A2)
0.000000000000000000e+00 4.057936293655473714e-05
5.000000000000000104e-03 3.337320239240439915e-03
1.000000000000000021e-02 1.285236844766849372e-02
1.499999999999999944e-02 2.736412619342864019e-02
2.000000000000000042e-02 4.519432133057433437e-02
2.500000000000000139e-02 6.455600939673522554e-02
2.999999999999999889e-02 8.394095883362694133e-02
3.500000000000000333e-02 1.019948651087631414e-01
4.000000000000000083e-02 1.180975075374294941e-01
4.499999999999999833e-02 1.319920659521413853e-01
5.000000000000000278e-02 1.439101301436466473e-01
5.500000000000000028e-02 1.542787878375625199e-01
5.999999999999999778e-02 1.636565662582441238e-01
6.500000000000000222e-02 1.726688663931503498e-01
7.000000000000000666e-02 1.818346990246904882e-01
7.499999999999999722e-02 1.914879685801548492e-01
8.000000000000000167e-02 2.018365185845465704e-01
8.500000000000000611e-02 2.128440658957864440e-01
8.999999999999999667e-02 2.244659888972390382e-01
9.500000000000000111e-02 2.364882173095840256e-01
1.000000000000000056e-01 2.485833780595475828e-01
1.049999999999999961e-01 2.605261248858153356e-01
1.100000000000000006e-01 2.720362012920124473e-01
1.150000000000000050e-01 2.829681247386447995e-01
1.199999999999999956e-01 2.931912606707998137e-01
1.250000000000000000e-01 3.026394738992857492e-01
1.300000000000000044e-01 3.114734444351709430e-01
1.350000000000000089e-01 3.196722351026600184e-01
1.400000000000000133e-01 3.274520836138891666e-01
1.449999999999999900e-01 3.349292086095727039e-01
1.499999999999999944e-01 3.422844897645948570e-01
1.549999999999999989e-01 3.496122025752582130e-01
1.600000000000000033e-01 3.569833371084732421e-01
1.650000000000000078e-01 3.644462563139130862e-01
1.700000000000000122e-01 3.719740993406966401e-01
1.750000000000000167e-01 3.795449809264733187e-01
1.799999999999999933e-01 3.870618245847026739e-01
1.849999999999999978e-01 3.945403630014511775e-01
1.900000000000000022e-01 4.019699032052673204e-01
1.950000000000000067e-01 4.092533368284625994e-01
2.000000000000000111e-01 4.163850693959956772e-01
2.050000000000000155e-01 4.234063144474403129e-01
2.099999999999999922e-01 4.303182300806742133e-01
2.149999999999999967e-01 4.371658480541962821e-01
2.200000000000000011e-01 4.440207527963471734e-01
2.250000000000000056e-01 4.508880978557403552e-01
2.300000000000000100e-01 4.577408214124269459e-01
2.350000000000000144e-01 4.646632018454330826e-01
2.399999999999999911e-01 4.716524141429197514e-01
2.449999999999999956e-01 4.786499118881688553e-01
2.500000000000000000e-01 4.856863058201864036e-01
2.550000000000000044e-01 4.926968354237326042e-01
2.600000000000000089e-01 4.997025005716510537e-01
2.650000000000000133e-01 5.066902984718946179e-01
2.700000000000000178e-01 5.136422553746786690e-01
2.750000000000000222e-01 5.205342843692409849e-01
2.800000000000000266e-01 5.273591596950704119e-01
2.850000000000000311e-01 5.341663927771252984e-01
2.899999999999999800e-01 5.408896843485399009e-01
2.949999999999999845e-01 5.476283413728061378e-01
2.999999999999999889e-01 5.543113512124681064e-01
3.049999999999999933e-01 5.609649811619764614e-01
3.099999999999999978e-01 5.675883531485280686e-01
3.150000000000000022e-01 5.741478910205168873e-01
3.200000000000000067e-01 5.807429031521175178e-01
3.250000000000000111e-01 5.872689346528526810e-01
3.300000000000000155e-01 5.937871283882875106e-01
3.350000000000000200e-01 6.002490845565146005e-01
3.400000000000000244e-01 6.067267537145798473e-01
3.450000000000000289e-01 6.131080640815549376e-01
3.500000000000000333e-01 6.194872427648873137e-01
3.549999999999999822e-01 6.258017910375673898e-01
3.599999999999999867e-01 6.321013005011031360e-01
3.649999999999999911e-01 6.383014021700733620e-01
3.699999999999999956e-01 6.444720164029736909e-01
3.750000000000000000e-01 6.505794165970647525e-01
3.800000000000000044e-01 6.566283603610042485e-01
3.850000000000000089e-01 6.626368362772823151e-01
3.900000000000000133e-01 6.686421874729466808e-01
3.950000000000000178e-01 6.745842175224282533e-01
4.000000000000000222e-01 6.804830449687354621e-01
4.050000000000000266e-01 6.863800573178892028e-01
4.100000000000000311e-01 6.922583120639203003e-01
4.150000000000000355e-01 6.981252822615765519e-01
4.199999999999999845e-01 7.040069746595092326e-01
4.249999999999999889e-01 7.098833140256463059e-01
4.299999999999999933e-01 7.157508242420386191e-01
4.349999999999999978e-01 7.215849062319107388e-01
4.400000000000000022e-01 7.274135651162395577e-01
4.450000000000000067e-01 7.331965462905022379e-01
4.500000000000000111e-01 7.388488362780741836e-01
4.550000000000000155e-01 7.445039570978023713e-01
4.600000000000000200e-01 7.500649745771940102e-01
4.650000000000000244e-01 7.555726927762603795e-01
4.700000000000000289e-01 7.610076729629516867e-01
4.750000000000000333e-01 7.664186441479802214e-01
4.799999999999999822e-01 7.717729223086111645e-01
4.849999999999999867e-01 7.771371824835494602e-01
4.899999999999999911e-01 7.824980881660237308e-01
4.949999999999999956e-01 7.878458741039296997e-01
5.000000000000000000e-01 7.931823390023587939e-01
5.050000000000000044e-01 7.985103955323658020e-01
5.100000000000000089e-01 8.038554245691807987e-01
5.150000000000000133e-01 8.092054258091315733e-01
5.200000000000000178e-01 8.145499042604346096e-01
5.250000000000000222e-01 8.198767406553080228e-01
5.300000000000000266e-01 8.251638818533552078e-01
5.350000000000000311e-01 8.304818246011760330e-01
5.400000000000000355e-01 8.357949552503126656e-01
5.450000000000000400e-01 8.410644507090548894e-01
5.500000000000000444e-01 8.463395314420788518e-01
5.550000000000000488e-01 8.516232431964416705e-01
5.600000000000000533e-01 8.568783084766965485e-01
5.650000000000000577e-01 8.621857864609124844e-01
5.700000000000000622e-01 8.675150607550335957e-01
5.750000000000000666e-01 8.728930481738559344e-01
5.799999999999999600e-01 8.782760326262527562e-01
5.849999999999999645e-01 8.837160940293659062e-01
5.899999999999999689e-01 8.891751588582265109e-01
5.949999999999999734e-01 8.946446939153823719e-01
5.999999999999999778e-01 9.001392732657172990e-01
6.049999999999999822e-01 9.056310900272023234e-01
6.099999999999999867e-01 9.111255042126504833e-01
6.149999999999999911e-01 9.165595302499524033e-01
6.199999999999999956e-01 9.220108810051740322e-01
6.250000000000000000e-01 9.274883491188746776e-01
6.300000000000000044e-01 9.328878138038461110e-01
6.350000000000000089e-01 9.382995108273455287e-01
6.400000000000000133e-01 9.436796694953062392e-01
6.450000000000000178e-01 9.490308771841632351e-01
6.500000000000000222e-01 9.543377438524159873e-01
6.550000000000000266e-01 9.596125526152315954e-01
6.600000000000000311e-01 9.648293446440473486e-01
6.650000000000000355e-01 9.700136916119528330e-01
6.700000000000000400e-01 9.751781627908036043e-01
6.750000000000000444e-01 9.802962530479991665e-01
6.800000000000000488e-01 9.854456122748910252e-01
6.850000000000000533e-01 9.905035814636841129e-01
6.900000000000000577e-01 9.956076122016798147e-01
6.950000000000000622e-01 1.000698667923774599e+00
7.000000000000000666e-01 1.005735029988763074e+00
7.049999999999999600e-01 1.010821759838776090e+00
7.099999999999999645e-01 1.015883915074025756e+00
7.149999999999999689e-01 1.020947239688355657e+00
7.199999999999999734e-01 1.026020519953954269e+00
7.249999999999999778e-01 1.031117547686451141e+00
7.299999999999999822e-01 1.036225375720374986e+00
7.349999999999999867e-01 1.041332131299167685e+00
7.399999999999999911e-01 1.046484004810574131e+00
7.449999999999999956e-01 1.051622857729867189e+00
7.500000000000000000e-01 1.056750820852462303e+00
7.550000000000000044e-01 1.061903438969463043e+00
7.600000000000000089e-01 1.067033477886836224e+00
7.650000000000000133e-01 1.072149551302937320e+00
7.700000000000000178e-01 1.077219954330870477e+00
7.750000000000000222e-01 1.082255270304565586e+00
7.800000000000000266e-01 1.087286132631946289e+00
7.850000000000000311e-01 1.092264158294330656e+00
7.900000000000000355e-01 1.097279038110609894e+00
7.950000000000000400e-01 1.102257769957160960e+00
8.000000000000000444e-01 1.107270144125063416e+00
8.050000000000000488e-01 1.112313134394029346e+00
8.100000000000000533e-01 1.117396130258843767e+00
8.150000000000000577e-01 1.122508387338485347e+00
8.200000000000000622e-01 1.127667988605963068e+00
8.250000000000000666e-01 1.132849095660052319e+00
8.300000000000000711e-01 1.138108074598294772e+00
8.349999999999999645e-01 1.143351352560833423e+00
8.399999999999999689e-01 1.148643883325170201e+00
8.449999999999999734e-01 1.153908234651587428e+00
8.499999999999999778e-01 1.159203887955771117e+00
8.549999999999999822e-01 1.164485038284540641e+00
8.599999999999999867e-01 1.169760979926027344e+00
8.649999999999999911e-01 1.175024512026756618e+00
8.699999999999999956e-01 1.180313988321999297e+00
8.750000000000000000e-01 1.185573660305514254e+00
8.800000000000000044e-01 1.190762112562299135e+00
8.850000000000000089e-01 1.195968706342197763e+00
8.900000000000000133e-01 1.201198205395575425e+00
8.950000000000000178e-01 1.206389095960528790e+00
9.000000000000000222e-01 1.211583946088187647e+00
9.050000000000000266e-01 1.216743447711351012e+00
9.100000000000000311e-01 1.221950637376130411e+00
9.150000000000000355e-01 1.227105963734439031e+00
9.200000000000000400e-01 1.232272837506771745e+00
9.250000000000000444e-01 1.237430881207619127e+00
9.300000000000000488e-01 1.242547219499400946e+00
9.350000000000000533e-01 1.247735599108569460e+00
9.400000000000000577e-01 1.252918517395850140e+00
9.450000000000000622e-01 1.258120323577827548e+00
9.500000000000000666e-01 1.263350953936849486e+00
9.550000000000000711e-01 1.268596730834316233e+00
9.599999999999999645e-01 1.273881073392114205e+00
9.649999999999999689e-01 1.279204769934054964e+00
9.699999999999999734e-01 1.284551543527162831e+00
9.749999999999999778e-01 1.289903499060937486e+00
9.799999999999999822e-01 1.295264235670749775e+00
9.849999999999999867e-01 1.300565841546470702e+00
9.899999999999999911e-01 1.305944995774242834e+00
9.949999999999999956e-01 1.311274603220105694e+00
1.000000000000000000e+00 1.316592378167269706e+00
1.005000000000000115e+00 1.321851755008896845e+00
1.010000000000000009e+00 1.327152104584724990e+00
1.015000000000000124e+00 1.332402321137410306e+00
1.020000000000000018e+00 1.337668822760380349e+00
1.024999999999999911e+00 1.342906970672862244e+00
1.030000000000000027e+00 1.348209309648489507e+00
1.034999999999999920e+00 1.353456046675023172e+00
1.040000000000000036e+00 1.358784935278600559e+00
1.044999999999999929e+00 1.364069305793478293e+00
1.050000000000000044e+00 1.369397665799374275e+00
1.054999999999999938e+00 1.374736711976091597e+00
1.060000000000000053e+00 1.380119272071423708e+00
1.064999999999999947e+00 1.385492813058530892e+00
1.070000000000000062e+00 1.390888487757627301e+00
1.074999999999999956e+00 1.396279988868096789e+00
1.080000000000000071e+00 1.401698059368363003e+00
1.084999999999999964e+00 1.407082028335474133e+00
1.090000000000000080e+00 1.412488471676486945e+00
1.094999999999999973e+00 1.417892006851234621e+00
1.100000000000000089e+00 1.423320703705519108e+00
1.104999999999999982e+00 1.428829959682052397e+00
1.110000000000000098e+00 1.434334986875273943e+00
1.114999999999999991e+00 1.439815739077383805e+00
1.120000000000000107e+00 1.445367396517685421e+00
1.125000000000000000e+00 1.450923745495191319e+00
1.130000000000000115e+00 1.456470638980328358e+00
1.135000000000000009e+00 1.461989553896642535e+00
1.140000000000000124e+00 1.467480171540413991e+00
1.145000000000000018e+00 1.472951400096746966e+00
1.150000000000000133e+00 1.478430331255641272e+00
1.155000000000000027e+00 1.483858772871100351e+00
1.159999999999999920e+00 1.489290664301647693e+00
1.165000000000000036e+00 1.494720056412021991e+00
1.169999999999999929e+00 1.500154638075010149e+00
1.175000000000000044e+00 1.505596634487468721e+00
1.179999999999999938e+00 1.511084985604990161e+00
1.185000000000000053e+00 1.516524275692078483e+00
1.189999999999999947e+00 1.522025920700044388e+00
1.195000000000000062e+00 1.527536352224583061e+00
1.199999999999999956e+00 1.533054364156646754e+00
1.205000000000000071e+00 1.538607678559185787e+00
1.209999999999999964e+00 1.544182858842720885e+00
1.215000000000000080e+00 1.549782776831747588e+00
1.219999999999999973e+00 1.555352073541164115e+00
1.225000000000000089e+00 1.560985464472103290e+00
1.229999999999999982e+00 1.566625768040525779e+00
1.235000000000000098e+00 1.572275655950848616e+00
1.239999999999999991e+00 1.577945822282543986e+00
1.245000000000000107e+00 1.583648423751908174e+00
1.250000000000000000e+00 1.589386856911135126e+00
1.255000000000000115e+00 1.595136006230627457e+00
1.260000000000000009e+00 1.600953874958145562e+00
1.265000000000000124e+00 1.606750670704483630e+00
1.270000000000000018e+00 1.612563842726396857e+00
1.275000000000000133e+00 1.618402070201147458e+00
1.280000000000000027e+00 1.624232105293353046e+00
1.284999999999999920e+00 1.630046097781511882e+00
1.290000000000000036e+00 1.635861363935150914e+00
1.294999999999999929e+00 1.641638641907633422e+00
1.300000000000000044e+00 1.647472134121455545e+00
1.304999999999999938e+00 1.653187360081648238e+00
1.310000000000000053e+00 1.658973122664213706e+00
1.314999999999999947e+00 1.664760015964569684e+00
1.320000000000000062e+00 1.670561720005750095e+00
1.324999999999999956e+00 1.676318397925902204e+00
1.330000000000000071e+00 1.682152404774306831e+00
1.334999999999999964e+00 1.687995830023092836e+00
1.340000000000000080e+00 1.693857583534814859e+00
1.344999999999999973e+00 1.699711203987395836e+00
1.350000000000000089e+00 1.705616129421425597e+00
1.354999999999999982e+00 1.711463111073810550e+00
1.360000000000000098e+00 1.717356121992573925e+00
1.364999999999999991e+00 1.723248474740423086e+00
1.370000000000000107e+00 1.729175355041467910e+00
1.375000000000000000e+00 1.735088841460507014e+00
1.380000000000000115e+00 1.741057855272044597e+00
1.385000000000000009e+00 1.747036126318385785e+00
1.390000000000000124e+00 1.753014220135591161e+00
1.395000000000000018e+00 1.759046241194218707e+00
1.400000000000000133e+00 1.765079002673147768e+00
1.405000000000000027e+00 1.771131639796253765e+00
1.409999999999999920e+00 1.777191021298299090e+00
1.415000000000000036e+00 1.783247845949870625e+00
1.419999999999999929e+00 1.789321231120097666e+00
1.425000000000000044e+00 1.795413603200396002e+00
1.429999999999999938e+00 1.801439504813423076e+00
1.435000000000000053e+00 1.807518937875274290e+00
1.439999999999999947e+00 1.813562403659794597e+00
1.445000000000000062e+00 1.819613878774307691e+00
1.449999999999999956e+00 1.825664097037463796e+00
1.455000000000000071e+00 1.831692715978910035e+00
1.459999999999999964e+00 1.837738558738075456e+00
1.465000000000000080e+00 1.843805231585617044e+00
1.469999999999999973e+00 1.849822514688585384e+00
1.475000000000000089e+00 1.855886384056399274e+00
1.479999999999999982e+00 1.861873470979029888e+00
1.485000000000000098e+00 1.867914925136030524e+00
1.489999999999999991e+00 1.873948885526157460e+00
1.495000000000000107e+00 1.879956942194865865e+00
1.500000000000000000e+00 1.885992226609606748e+00
1.505000000000000115e+00 1.892006981789293052e+00
1.510000000000000009e+00 1.898050887737138481e+00
1.515000000000000124e+00 1.904105306709109380e+00
1.520000000000000018e+00 1.910155626363942316e+00
1.525000000000000133e+00 1.916219552756021072e+00
1.530000000000000027e+00 1.922379710865212532e+00
1.535000000000000142e+00 1.928533556460681142e+00
1.540000000000000036e+00 1.934772701402403206e+00
1.544999999999999929e+00 1.940986390777520443e+00
1.550000000000000044e+00 1.947278160137464909e+00
1.554999999999999938e+00 1.953545461629770941e+00
1.560000000000000053e+00 1.959847316398810158e+00
1.564999999999999947e+00 1.966125712515337076e+00
1.570000000000000062e+00 1.972400341015420056e+00
1.574999999999999956e+00 1.978643906697022059e+00
1.580000000000000071e+00 1.984872482152161277e+00
1.584999999999999964e+00 1.991087140800545496e+00
1.590000000000000080e+00 1.997291843750230944e+00
1.594999999999999973e+00 2.003464037197576708e+00
1.600000000000000089e+00 2.009615132521005876e+00
1.604999999999999982e+00 2.015706688935160251e+00
1.610000000000000098e+00 2.021866400217326554e+00
1.614999999999999991e+00 2.027997897348071898e+00
1.620000000000000107e+00 2.034097314677203006e+00
1.625000000000000000e+00 2.040229297388727048e+00
1.630000000000000115e+00 2.046408362669785763e+00
1.635000000000000009e+00 2.052566600362059734e+00
1.640000000000000124e+00 2.058813877586281205e+00
1.645000000000000018e+00 2.065043602670578071e+00
1.650000000000000133e+00 2.071338318874429429e+00
1.655000000000000027e+00 2.077642026052894497e+00
1.660000000000000142e+00 2.083947822900423574e+00
1.665000000000000036e+00 2.090248159168822450e+00
1.669999999999999929e+00 2.096625263416905582e+00
1.675000000000000044e+00 2.102950622066368958e+00
1.679999999999999938e+00 2.109310180149706504e+00
1.685000000000000053e+00 2.115669706484510471e+00
1.689999999999999947e+00 2.122036693637571414e+00
1.695000000000000062e+00 2.128376925956795507e+00
1.699999999999999956e+00 2.134726525283916931e+00
1.705000000000000071e+00 2.141121443949500769e+00
1.709999999999999964e+00 2.147521548977382455e+00
1.715000000000000080e+00 2.153916134645798675e+00
1.719999999999999973e+00 2.160409510229770458e+00
1.725000000000000089e+00 2.166914388310969386e+00
1.729999999999999982e+00 2.173447678316474896e+00
1.735000000000000098e+00 2.180000748975681635e+00
1.739999999999999991e+00 2.186572594832056904e+00
1.745000000000000107e+00 2.193162848264610165e+00
1.750000000000000000e+00 2.199783430431963449e+00
1.755000000000000115e+00 2.206375375324002519e+00
1.760000000000000009e+00 2.212983511849591967e+00
1.765000000000000124e+00 2.219578347404725260e+00
1.770000000000000018e+00 2.226176815136127640e+00
1.775000000000000133e+00 2.232769124841036401e+00
1.780000000000000027e+00 2.239375132219084019e+00
1.785000000000000142e+00 2.245999312766187028e+00
1.790000000000000036e+00 2.252639063054911350e+00
1.794999999999999929e+00 2.259270246135144600e+00
1.800000000000000044e+00 2.265949419102220919e+00
1.804999999999999938e+00 2.272604440088578315e+00
1.810000000000000053e+00 2.279295301805415619e+00
1.814999999999999947e+00 2.286017090110144867e+00
1.820000000000000062e+00 2.292747430101252704e+00
1.824999999999999956e+00 2.299478032356050861e+00
1.830000000000000071e+00 2.306158994238903581e+00
1.834999999999999964e+00 2.312849379608097777e+00
1.840000000000000080e+00 2.319527765418222032e+00
1.844999999999999973e+00 2.326186339121322444e+00
1.850000000000000089e+00 2.332848447819532822e+00
1.854999999999999982e+00 2.339483794719825926e+00
1.860000000000000098e+00 2.346080605412439013e+00
1.864999999999999991e+00 2.352746549873643289e+00
1.870000000000000107e+00 2.359452016812782826e+00
1.875000000000000000e+00 2.366154619390682168e+00
1.880000000000000115e+00 2.372911984802589469e+00
1.885000000000000009e+00 2.379693888720492811e+00
1.890000000000000124e+00 2.386494221433153484e+00
1.895000000000000018e+00 2.393316244718326935e+00
1.900000000000000133e+00 2.400118241687502429e+00
1.905000000000000027e+00 2.406921215222044719e+00
1.910000000000000142e+00 2.413700224659718785e+00
1.915000000000000036e+00 2.420464315086279683e+00
1.919999999999999929e+00 2.427145378678420062e+00
1.925000000000000044e+00 2.433805603590540212e+00
1.929999999999999938e+00 2.440432507906892479e+00
1.935000000000000053e+00 2.447041229294558917e+00
1.939999999999999947e+00 2.453688331915021781e+00
1.945000000000000062e+00 2.460333535685467865e+00
1.949999999999999956e+00 2.466995042298278040e+00
1.955000000000000071e+00 2.473655446188776086e+00
1.959999999999999964e+00 2.480396240408881514e+00
1.965000000000000080e+00 2.487140409040520250e+00
1.969999999999999973e+00 2.493922193408241839e+00
1.975000000000000089e+00 2.500713804699575160e+00
1.979999999999999982e+00 2.507529046758304681e+00
1.985000000000000098e+00 2.514313740505480954e+00
1.989999999999999991e+00 2.521141074866528164e+00
