# time (ps)	msd (A2)
0.000000000000000000e+00 4.768205172763931453e-06
5.000000000000000104e-03 2.665116790102498110e-03
1.000000000000000021e-02 1.034372483269626990e-02
1.499999999999999944e-02 2.214690755733887337e-02
2.000000000000000042e-02 3.674516489611071718e-02
2.500000000000000139e-02 5.272974550143205708e-02
2.999999999999999889e-02 6.880334638867352526e-02
3.500000000000000333e-02 8.387722337253811222e-02
4.000000000000000083e-02 9.731086698020552372e-02
4.499999999999999833e-02 1.087952206147592832e-01
5.000000000000000278e-02 1.183506077950898377e-01
5.500000000000000028e-02 1.262657148531065310e-01
5.999999999999999778e-02 1.329713782589966586e-01
6.500000000000000222e-02 1.388772663541738561e-01
7.000000000000000666e-02 1.444169169911846684e-01
7.499999999999999722e-02 1.498819187365372230e-01
8.000000000000000167e-02 1.554529732367837813e-01
8.500000000000000611e-02 1.612000275177923880e-01
8.999999999999999667e-02 1.671310097732525701e-01
9.500000000000000111e-02 1.731400543886003618e-01
1.000000000000000056e-01 1.791399853164444833e-01
1.049999999999999961e-01 1.849754912589808287e-01
1.100000000000000006e-01 1.905863699504177777e-01
1.150000000000000050e-01 1.958800822691572352e-01
1.199999999999999956e-01 2.008906133341221700e-01
1.250000000000000000e-01 2.056036417996224552e-01
1.300000000000000044e-01 2.100487816148490783e-01
1.350000000000000089e-01 2.143316412961291662e-01
1.400000000000000133e-01 2.185089435487366227e-01
1.449999999999999900e-01 2.225841414241470362e-01
1.499999999999999944e-01 2.266491479555999000e-01
1.549999999999999989e-01 2.306819041648900670e-01
1.600000000000000033e-01 2.346980126659551080e-01
1.650000000000000078e-01 2.386628938269500233e-01
1.700000000000000122e-01 2.425402663734398112e-01
1.750000000000000167e-01 2.462990297045728472e-01
1.799999999999999933e-01 2.499444341989246754e-01
1.849999999999999978e-01 2.533977195103396807e-01
1.900000000000000022e-01 2.566763789395018480e-01
1.950000000000000067e-01 2.597944736063835247e-01
2.000000000000000111e-01 2.627864345947363289e-01
2.050000000000000155e-01 2.656753078460982187e-01
2.099999999999999922e-01 2.685185820986762395e-01
2.149999999999999967e-01 2.713552320299223442e-01
2.200000000000000011e-01 2.742425766375349849e-01
2.250000000000000056e-01 2.771760936776337947e-01
2.300000000000000100e-01 2.802039547451844470e-01
2.350000000000000144e-01 2.833184802530024915e-01
2.399999999999999911e-01 2.864854009999882600e-01
2.449999999999999956e-01 2.897015335673707725e-01
2.500000000000000000e-01 2.929132333257426501e-01
2.550000000000000044e-01 2.961030913962860445e-01
2.600000000000000089e-01 2.992395597961665099e-01
2.650000000000000133e-01 3.023163509194071730e-01
2.700000000000000178e-01 3.052702146085361501e-01
2.750000000000000222e-01 3.081305407362150972e-01
2.800000000000000266e-01 3.109011935373822144e-01
2.850000000000000311e-01 3.135757056839232892e-01
2.899999999999999800e-01 3.161990801863636680e-01
2.949999999999999845e-01 3.187936771258006452e-01
2.999999999999999889e-01 3.213343985100283184e-01
3.049999999999999933e-01 3.238655038837182087e-01
3.099999999999999978e-01 3.263625923575628196e-01
3.150000000000000022e-01 3.288754744041339495e-01
3.200000000000000067e-01 3.313682233069192296e-01
3.250000000000000111e-01 3.338210373343828974e-01
3.300000000000000155e-01 3.362457575226560635e-01
3.350000000000000200e-01 3.386593396745817830e-01
3.400000000000000244e-01 3.410190338481727257e-01
3.450000000000000289e-01 3.433478389405819065e-01
3.500000000000000333e-01 3.456240023537415773e-01
3.549999999999999822e-01 3.478771127543117125e-01
3.599999999999999867e-01 3.501184541026793329e-01
3.649999999999999911e-01 3.523512833770647279e-01
3.699999999999999956e-01 3.545906108163349724e-01
3.750000000000000000e-01 3.568215809492323309e-01
3.800000000000000044e-01 3.590813548468207439e-01
3.850000000000000089e-01 3.613535385168811231e-01
3.900000000000000133e-01 3.636633188396258265e-01
3.950000000000000178e-01 3.660220635020007829e-01
4.000000000000000222e-01 3.683908653259102550e-01
4.050000000000000266e-01 3.707632952033761420e-01
4.100000000000000311e-01 3.731861848679092764e-01
4.150000000000000355e-01 3.756098776263789851e-01
4.199999999999999845e-01 3.780045329337588522e-01
4.249999999999999889e-01 3.803815113045314056e-01
4.299999999999999933e-01 3.826909560379779252e-01
4.349999999999999978e-01 3.848941729747184515e-01
4.400000000000000022e-01 3.869982850240683558e-01
4.450000000000000067e-01 3.889892000629487367e-01
4.500000000000000111e-01 3.908908524899892822e-01
4.550000000000000155e-01 3.926929753038065907e-01
4.600000000000000200e-01 3.944342194475902730e-01
4.650000000000000244e-01 3.961412343201379804e-01
4.700000000000000289e-01 3.978360131413244960e-01
4.750000000000000333e-01 3.995568971283431914e-01
4.799999999999999822e-01 4.013389689166466101e-01
4.849999999999999867e-01 4.031762809803510206e-01
4.899999999999999911e-01 4.050604991582026915e-01
4.949999999999999956e-01 4.069761597745262804e-01
5.000000000000000000e-01 4.089152679522010669e-01
5.050000000000000044e-01 4.108042890775515654e-01
5.100000000000000089e-01 4.126709231576627945e-01
5.150000000000000133e-01 4.144726399882618928e-01
5.200000000000000178e-01 4.162116882347626223e-01
5.250000000000000222e-01 4.178659070620119320e-01
5.300000000000000266e-01 4.194706955306280460e-01
5.350000000000000311e-01 4.210303880874353699e-01
5.400000000000000355e-01 4.225470133645610749e-01
5.450000000000000400e-01 4.240584952631119009e-01
5.500000000000000444e-01 4.255759153072419809e-01
5.550000000000000488e-01 4.271086842378390425e-01
5.600000000000000533e-01 4.286585269971281975e-01
5.650000000000000577e-01 4.302290988781949932e-01
5.700000000000000622e-01 4.318475425559544223e-01
5.750000000000000666e-01 4.334776562574456094e-01
5.799999999999999600e-01 4.351425840703086467e-01
5.849999999999999645e-01 4.368186220043662193e-01
5.899999999999999689e-01 4.385211982426523991e-01
5.949999999999999734e-01 4.402518433131790698e-01
5.999999999999999778e-01 4.420038660488310178e-01
6.049999999999999822e-01 4.437543582089896188e-01
6.099999999999999867e-01 4.454968145596402418e-01
6.149999999999999911e-01 4.472029688682493398e-01
6.199999999999999956e-01 4.489214588264267558e-01
6.250000000000000000e-01 4.505988157570517960e-01
6.300000000000000044e-01 4.522481438119164143e-01
6.350000000000000089e-01 4.538758241558188966e-01
6.400000000000000133e-01 4.554772601188674663e-01
6.450000000000000178e-01 4.570630583649006873e-01
6.500000000000000222e-01 4.586341231264843832e-01
6.550000000000000266e-01 4.602075419931887512e-01
6.600000000000000311e-01 4.618085370759226760e-01
6.650000000000000355e-01 4.634420590237830484e-01
6.700000000000000400e-01 4.650698984881342923e-01
6.750000000000000444e-01 4.667379805002813686e-01
6.800000000000000488e-01 4.684270619248224743e-01
6.850000000000000533e-01 4.701209379926001297e-01
6.900000000000000577e-01 4.718380469428855584e-01
6.950000000000000622e-01 4.735662754931169727e-01
7.000000000000000666e-01 4.753088259655109948e-01
7.049999999999999600e-01 4.770364478844602019e-01
7.099999999999999645e-01 4.787805780846292047e-01
7.149999999999999689e-01 4.805409812695297656e-01
7.199999999999999734e-01 4.822885624242858604e-01
7.249999999999999778e-01 4.840677319975051351e-01
7.299999999999999822e-01 4.858140701364736525e-01
7.349999999999999867e-01 4.875544487842590757e-01
7.399999999999999911e-01 4.893171941443414386e-01
7.449999999999999956e-01 4.910282423957236797e-01
7.500000000000000000e-01 4.927373380704054839e-01
7.550000000000000044e-01 4.944242078105718363e-01
7.600000000000000089e-01 4.961164594768277536e-01
7.650000000000000133e-01 4.977739373390073219e-01
7.700000000000000178e-01 4.994238242644357118e-01
7.750000000000000222e-01 5.010762365937948548e-01
7.800000000000000266e-01 5.027398715009482322e-01
7.850000000000000311e-01 5.043973051413620512e-01
7.900000000000000355e-01 5.060519356665058588e-01
7.950000000000000400e-01 5.077397766509763599e-01
8.000000000000000444e-01 5.094345501445450841e-01
8.050000000000000488e-01 5.111487532864137373e-01
8.100000000000000533e-01 5.128659728010901420e-01
8.150000000000000577e-01 5.145850573624216606e-01
8.200000000000000622e-01 5.163130184107419529e-01
8.250000000000000666e-01 5.180275414986966753e-01
8.300000000000000711e-01 5.197380675051713750e-01
8.349999999999999645e-01 5.214333344973183237e-01
8.399999999999999689e-01 5.231092735958097206e-01
8.449999999999999734e-01 5.248023199287712437e-01
8.499999999999999778e-01 5.264632293357274229e-01
8.549999999999999822e-01 5.281061821371656473e-01
8.599999999999999867e-01 5.297700964074695262e-01
8.649999999999999911e-01 5.314445182962187486e-01
8.699999999999999956e-01 5.331018902858264408e-01
8.750000000000000000e-01 5.347574936698665793e-01
8.800000000000000044e-01 5.364327840833205130e-01
8.850000000000000089e-01 5.381169519703415949e-01
8.900000000000000133e-01 5.398020292392013975e-01
8.950000000000000178e-01 5.414786538196646459e-01
9.000000000000000222e-01 5.431418426924756737e-01
9.050000000000000266e-01 5.448031856028667796e-01
9.100000000000000311e-01 5.464428099279736717e-01
9.150000000000000355e-01 5.480857365272014947e-01
9.200000000000000400e-01 5.497194087199528401e-01
9.250000000000000444e-01 5.513353198170567460e-01
9.300000000000000488e-01 5.529518341332407827e-01
9.350000000000000533e-01 5.545461713780336366e-01
9.400000000000000577e-01 5.561462796257000685e-01
9.450000000000000622e-01 5.577031618342204178e-01
9.500000000000000666e-01 5.592731674389987973e-01
9.550000000000000711e-01 5.608438077214396023e-01
9.599999999999999645e-01 5.623797313853505786e-01
9.649999999999999689e-01 5.639404644689939294e-01
9.699999999999999734e-01 5.654759295884680403e-01
9.749999999999999778e-01 5.670344200007452207e-01
9.799999999999999822e-01 5.686251077197140846e-01
9.849999999999999867e-01 5.702078333270518273e-01
9.899999999999999911e-01 5.718135685372950361e-01
9.949999999999999956e-01 5.734411718730392238e-01
1.000000000000000000e+00 5.750865002441886142e-01
1.005000000000000115e+00 5.767309860340178451e-01
1.010000000000000009e+00 5.783910869420121337e-01
1.015000000000000124e+00 5.800698264071693089e-01
1.020000000000000018e+00 5.817605434415763499e-01
1.024999999999999911e+00 5.834437878016610624e-01
1.030000000000000027e+00 5.851340819717544273e-01
1.034999999999999920e+00 5.868284496237864412e-01
1.040000000000000036e+00 5.885508595107292740e-01
1.044999999999999929e+00 5.902371035049331915e-01
1.050000000000000044e+00 5.919316051795803224e-01
1.054999999999999938e+00 5.936182333934666433e-01
1.060000000000000053e+00 5.953094141932270267e-01
1.064999999999999947e+00 5.969777280612306170e-01
1.070000000000000062e+00 5.986149002757262805e-01
1.074999999999999956e+00 6.002275298127260905e-01
1.080000000000000071e+00 6.018210780772985657e-01
1.084999999999999964e+00 6.033817420788385455e-01
1.090000000000000080e+00 6.049246000811546731e-01
1.094999999999999973e+00 6.064557420871032889e-01
1.100000000000000089e+00 6.079717194090151766e-01
1.104999999999999982e+00 6.094647223599843899e-01
1.110000000000000098e+00 6.109772722519557497e-01
1.114999999999999991e+00 6.125106821831258763e-01
1.120000000000000107e+00 6.140509869979130508e-01
1.125000000000000000e+00 6.155959920192272117e-01
1.130000000000000115e+00 6.171555038762360779e-01
1.135000000000000009e+00 6.187218034087286211e-01
1.140000000000000124e+00 6.202978130783739497e-01
1.145000000000000018e+00 6.218832000531205884e-01
1.150000000000000133e+00 6.234479039199568584e-01
1.155000000000000027e+00 6.250388758685797574e-01
1.159999999999999920e+00 6.266255653184737984e-01
1.165000000000000036e+00 6.282158003852876815e-01
1.169999999999999929e+00 6.298336394673963445e-01
1.175000000000000044e+00 6.314760363845306479e-01
1.179999999999999938e+00 6.331536337023391248e-01
1.185000000000000053e+00 6.348443211351525450e-01
1.189999999999999947e+00 6.365707724021628655e-01
1.195000000000000062e+00 6.383198792093882634e-01
1.199999999999999956e+00 6.400699552100800327e-01
1.205000000000000071e+00 6.418345169136480122e-01
1.209999999999999964e+00 6.435789031624983281e-01
1.215000000000000080e+00 6.453448103650147871e-01
1.219999999999999973e+00 6.470887531747125943e-01
1.225000000000000089e+00 6.488283590379313459e-01
1.229999999999999982e+00 6.505349015701703541e-01
1.235000000000000098e+00 6.522605470974875974e-01
1.239999999999999991e+00 6.539784728753760268e-01
1.245000000000000107e+00 6.556749346993818728e-01
1.250000000000000000e+00 6.573934214332047832e-01
1.255000000000000115e+00 6.591154546108141110e-01
1.260000000000000009e+00 6.608691051997820365e-01
1.265000000000000124e+00 6.626175434114132123e-01
1.270000000000000018e+00 6.644087654532749854e-01
1.275000000000000133e+00 6.662206091603711799e-01
1.280000000000000027e+00 6.680459573736556855e-01
1.284999999999999920e+00 6.698920873754184990e-01
1.290000000000000036e+00 6.717370551497068298e-01
1.294999999999999929e+00 6.736170752830412667e-01
1.300000000000000044e+00 6.755001480524572832e-01
1.304999999999999938e+00 6.773816762094942989e-01
1.310000000000000053e+00 6.792799731597390922e-01
1.314999999999999947e+00 6.811666680950224650e-01
1.320000000000000062e+00 6.830638808710624010e-01
1.324999999999999956e+00 6.849378317546822581e-01
1.330000000000000071e+00 6.868296579954344949e-01
1.334999999999999964e+00 6.887123152426418704e-01
1.340000000000000080e+00 6.905698476383395068e-01
1.344999999999999973e+00 6.924245105329970285e-01
1.350000000000000089e+00 6.942642322311903813e-01
1.354999999999999982e+00 6.961184241366189518e-01
1.360000000000000098e+00 6.979578989581245452e-01
1.364999999999999991e+00 6.997871474453362106e-01
1.370000000000000107e+00 7.016308442047289873e-01
1.375000000000000000e+00 7.034974186623729198e-01
1.380000000000000115e+00 7.053652893390701673e-01
1.385000000000000009e+00 7.072235285047400177e-01
1.390000000000000124e+00 7.091005434931504370e-01
1.395000000000000018e+00 7.109765125795869389e-01
1.400000000000000133e+00 7.128440463661012139e-01
1.405000000000000027e+00 7.147221838408860384e-01
1.409999999999999920e+00 7.165890459608830199e-01
1.415000000000000036e+00 7.184638017031151902e-01
1.419999999999999929e+00 7.203182394843161696e-01
1.425000000000000044e+00 7.221988915553834154e-01
1.429999999999999938e+00 7.240741802088899171e-01
1.435000000000000053e+00 7.259802071670820034e-01
1.439999999999999947e+00 7.279180003446862335e-01
1.445000000000000062e+00 7.298691477757156543e-01
1.449999999999999956e+00 7.318571452231035224e-01
1.455000000000000071e+00 7.338685379996494618e-01
1.459999999999999964e+00 7.358762131798196604e-01
1.465000000000000080e+00 7.379089765762807396e-01
1.469999999999999973e+00 7.399508164746763095e-01
1.475000000000000089e+00 7.420035220870490056e-01
1.479999999999999982e+00 7.440489228850268866e-01
1.485000000000000098e+00 7.460752725628484461e-01
1.489999999999999991e+00 7.481065507154206484e-01
1.495000000000000107e+00 7.501623491097314522e-01
1.500000000000000000e+00 7.522259946000993125e-01
1.505000000000000115e+00 7.542773822708271902e-01
1.510000000000000009e+00 7.563406410081384701e-01
1.515000000000000124e+00 7.584266187910323476e-01
1.520000000000000018e+00 7.605303895342009346e-01
1.525000000000000133e+00 7.626255966144994680e-01
1.530000000000000027e+00 7.647030083208683493e-01
1.535000000000000142e+00 7.668128290278289905e-01
1.540000000000000036e+00 7.689065962915356822e-01
1.544999999999999929e+00 7.709825183323802955e-01
1.550000000000000044e+00 7.730722204352669102e-01
1.554999999999999938e+00 7.751604476477926831e-01
1.560000000000000053e+00 7.772602521189272418e-01
1.564999999999999947e+00 7.793669746417511979e-01
1.570000000000000062e+00 7.814846352127949869e-01
1.574999999999999956e+00 7.836328072350823293e-01
1.580000000000000071e+00 7.857834345015274335e-01
1.584999999999999964e+00 7.879514029968218702e-01
1.590000000000000080e+00 7.901224883331384730e-01
1.594999999999999973e+00 7.922927872459418763e-01
1.600000000000000089e+00 7.944697589548894712e-01
1.604999999999999982e+00 7.966215662462784453e-01
1.610000000000000098e+00 7.987655173797305608e-01
1.614999999999999991e+00 8.009208963610406906e-01
1.620000000000000107e+00 8.030489215053474572e-01
1.625000000000000000e+00 8.051384351141509521e-01
1.630000000000000115e+00 8.072299033429713999e-01
1.635000000000000009e+00 8.093172046756910154e-01
1.640000000000000124e+00 8.114024562811555930e-01
1.645000000000000018e+00 8.134751301283849045e-01
1.650000000000000133e+00 8.155557254077560048e-01
1.655000000000000027e+00 8.176314540793218066e-01
1.660000000000000142e+00 8.197258466141361666e-01
1.665000000000000036e+00 8.218181637309673881e-01
1.669999999999999929e+00 8.239154468076810289e-01
1.675000000000000044e+00 8.260544378928975640e-01
1.679999999999999938e+00 8.282335136781072693e-01
1.685000000000000053e+00 8.304299173567915027e-01
1.689999999999999947e+00 8.326453100614420455e-01
1.695000000000000062e+00 8.348829354874185427e-01
1.699999999999999956e+00 8.371341513618464347e-01
1.705000000000000071e+00 8.393816845949962913e-01
1.709999999999999964e+00 8.416092370029288894e-01
1.715000000000000080e+00 8.438223001501142795e-01
1.719999999999999973e+00 8.460364880278311572e-01
1.725000000000000089e+00 8.482031696410149424e-01
1.729999999999999982e+00 8.503699752167873660e-01
1.735000000000000098e+00 8.525278545728806057e-01
1.739999999999999991e+00 8.546513555372584614e-01
1.745000000000000107e+00 8.567986425682674323e-01
1.750000000000000000e+00 8.589301176518500114e-01
1.755000000000000115e+00 8.610728055335949982e-01
1.760000000000000009e+00 8.632147159377544510e-01
1.765000000000000124e+00 8.653721494460286934e-01
1.770000000000000018e+00 8.675208300221282087e-01
1.775000000000000133e+00 8.696826031738230656e-01
1.780000000000000027e+00 8.718459843562369471e-01
1.785000000000000142e+00 8.740117403969009935e-01
1.790000000000000036e+00 8.761465120736339207e-01
1.794999999999999929e+00 8.783273664166849626e-01
1.800000000000000044e+00 8.804942421243678874e-01
1.804999999999999938e+00 8.826762912061441035e-01
1.810000000000000053e+00 8.848552856454562354e-01
1.814999999999999947e+00 8.870459969167109326e-01
1.820000000000000062e+00 8.892373566109402772e-01
1.824999999999999956e+00 8.914550063057028462e-01
1.830000000000000071e+00 8.936460678875149943e-01
1.834999999999999964e+00 8.958425261805897932e-01
1.840000000000000080e+00 8.980593006802730649e-01
1.844999999999999973e+00 9.002465639428778310e-01
1.850000000000000089e+00 9.024447265148287656e-01
1.854999999999999982e+00 9.046464501931401614e-01
1.860000000000000098e+00 9.068582683802069999e-01
1.864999999999999991e+00 9.090432980150052744e-01
1.870000000000000107e+00 9.112506695064895856e-01
1.875000000000000000e+00 9.134772905397247067e-01
1.880000000000000115e+00 9.156850338116369059e-01
1.885000000000000009e+00 9.178954608875412591e-01
1.890000000000000124e+00 9.201168268357612368e-01
1.895000000000000018e+00 9.223358908562087066e-01
1.900000000000000133e+00 9.245719974583349599e-01
1.905000000000000027e+00 9.267971609383615084e-01
1.910000000000000142e+00 9.290403828412232556e-01
1.915000000000000036e+00 9.312773947592001278e-01
1.919999999999999929e+00 9.335363694403261414e-01
1.925000000000000044e+00 9.357847551733735614e-01
1.929999999999999938e+00 9.380753746891512534e-01
1.935000000000000053e+00 9.403857171546713412e-01
1.939999999999999947e+00 9.426974650884698548e-01
1.945000000000000062e+00 9.450488936015588592e-01
1.949999999999999956e+00 9.474131176709899016e-01
1.955000000000000071e+00 9.498030957648447847e-01
1.959999999999999964e+00 9.522139060809213795e-01
1.965000000000000080e+00 9.546364844257465565e-01
1.969999999999999973e+00 9.570640274191219987e-01
1.975000000000000089e+00 9.595018591620837478e-01
1.979999999999999982e+00 9.619519872608085498e-01
1.985000000000000098e+00 9.643986433896003518e-01
1.989999999999999991e+00 9.668719102445493263e-01
