# time (ps)	msd (pm2)
0.000000000000000000e+00 -8.147675309433388691e-06
5.000000000000000104e-03 2.666075282464565582e-03
1.000000000000000021e-02 1.036748837386338926e-02
1.499999999999999944e-02 2.224584467411309593e-02
2.000000000000000042e-02 3.693709354008161555e-02
2.500000000000000139e-02 5.303799112532092686e-02
2.999999999999999889e-02 6.921329648323014394e-02
3.500000000000000333e-02 8.435943158809475206e-02
4.000000000000000083e-02 9.782157615443795584e-02
4.499999999999999833e-02 1.092685761438426106e-01
5.000000000000000278e-02 1.187050017957160530e-01
5.500000000000000028e-02 1.264066834301558473e-01
5.999999999999999778e-02 1.328160057617340239e-01
6.500000000000000222e-02 1.383664931687951793e-01
7.000000000000000666e-02 1.434982348906115590e-01
7.499999999999999722e-02 1.485583299331591778e-01
8.000000000000000167e-02 1.537659040099787211e-01
8.500000000000000611e-02 1.592421791781722107e-01
8.999999999999999667e-02 1.650032131410215652e-01
9.500000000000000111e-02 1.709357272597873401e-01
1.000000000000000056e-01 1.769401171494332514e-01
1.049999999999999961e-01 1.828530522663591729e-01
1.100000000000000006e-01 1.885669599924418294e-01
1.150000000000000050e-01 1.939623051819550081e-01
1.199999999999999956e-01 1.990141557885470869e-01
1.250000000000000000e-01 2.037255038352862035e-01
1.300000000000000044e-01 2.080609197814309863e-01
1.350000000000000089e-01 2.121130840597487133e-01
1.400000000000000133e-01 2.159668736665737998e-01
1.449999999999999900e-01 2.196817460093417607e-01
1.499999999999999944e-01 2.233523134274358890e-01
1.549999999999999989e-01 2.269663946515876884e-01
1.600000000000000033e-01 2.305578167646817889e-01
1.650000000000000078e-01 2.341842080557886563e-01
1.700000000000000122e-01 2.377600034607550428e-01
1.750000000000000167e-01 2.412829790114155992e-01
1.799999999999999933e-01 2.447477305656299285e-01
1.849999999999999978e-01 2.481083061759469799e-01
1.900000000000000022e-01 2.513362894148988280e-01
1.950000000000000067e-01 2.544194723240056910e-01
2.000000000000000111e-01 2.574179220544643987e-01
2.050000000000000155e-01 2.602681750474485911e-01
2.099999999999999922e-01 2.630785007251573160e-01
2.149999999999999967e-01 2.658409898752649991e-01
2.200000000000000011e-01 2.686198176436691565e-01
2.250000000000000056e-01 2.714622236763435947e-01
2.300000000000000100e-01 2.743685494651028067e-01
2.350000000000000144e-01 2.773664908409029795e-01
2.399999999999999911e-01 2.804049931342119661e-01
2.449999999999999956e-01 2.835176890924339110e-01
2.500000000000000000e-01 2.866215933848079711e-01
2.550000000000000044e-01 2.897281191737407502e-01
2.600000000000000089e-01 2.927838930083258573e-01
2.650000000000000133e-01 2.957240073892893895e-01
2.700000000000000178e-01 2.985123961317385222e-01
2.750000000000000222e-01 3.011888168880275107e-01
2.800000000000000266e-01 3.037350086991630338e-01
2.850000000000000311e-01 3.061928586493932181e-01
2.899999999999999800e-01 3.085807258637916495e-01
2.949999999999999845e-01 3.109064304569104653e-01
2.999999999999999889e-01 3.132205030348843566e-01
3.049999999999999933e-01 3.155508712853071773e-01
3.099999999999999978e-01 3.178352326372565484e-01
3.150000000000000022e-01 3.201545731340744161e-01
3.200000000000000067e-01 3.224706194952300375e-01
3.250000000000000111e-01 3.247312152973300670e-01
3.300000000000000155e-01 3.269031517953019383e-01
3.350000000000000200e-01 3.290025276801097909e-01
3.400000000000000244e-01 3.309919109120514902e-01
3.450000000000000289e-01 3.328812971889293926e-01
3.500000000000000333e-01 3.346530521932081226e-01
3.549999999999999822e-01 3.363245681406196175e-01
3.599999999999999867e-01 3.379352252839243897e-01
3.649999999999999911e-01 3.395406378229927080e-01
3.699999999999999956e-01 3.411653328939604490e-01
3.750000000000000000e-01 3.427880984000236664e-01
3.800000000000000044e-01 3.444933484088706921e-01
3.850000000000000089e-01 3.462505779154251839e-01
3.900000000000000133e-01 3.481368960993443951e-01
3.950000000000000178e-01 3.501572555745586790e-01
4.000000000000000222e-01 3.522655532745628815e-01
4.050000000000000266e-01 3.544327586276614372e-01
4.100000000000000311e-01 3.567144151097565441e-01
4.150000000000000355e-01 3.590328782153357490e-01
4.199999999999999845e-01 3.612916039145077640e-01
4.249999999999999889e-01 3.635492622231629167e-01
4.299999999999999933e-01 3.657020806796176249e-01
4.349999999999999978e-01 3.676919797820608071e-01
4.400000000000000022e-01 3.695564338446081232e-01
4.450000000000000067e-01 3.712518592146700769e-01
4.500000000000000111e-01 3.728159982696185315e-01
4.550000000000000155e-01 3.742205761812492648e-01
4.600000000000000200e-01 3.755430117347796082e-01
4.650000000000000244e-01 3.768187275502299927e-01
4.700000000000000289e-01 3.780966660957570946e-01
4.750000000000000333e-01 3.794221778549568547e-01
4.799999999999999822e-01 3.808397175937745516e-01
4.849999999999999867e-01 3.823704664124673025e-01
4.899999999999999911e-01 3.839876364562134214e-01
4.949999999999999956e-01 3.856996985917938159e-01
5.000000000000000000e-01 3.874585175013247618e-01
5.050000000000000044e-01 3.892139673741214501e-01
5.100000000000000089e-01 3.909092866341027928e-01
5.150000000000000133e-01 3.925872997037164192e-01
5.200000000000000178e-01 3.941542279855854702e-01
5.250000000000000222e-01 3.956118068123239406e-01
5.300000000000000266e-01 3.970121318663098475e-01
5.350000000000000311e-01 3.983430276209662391e-01
5.400000000000000355e-01 3.996181491601524804e-01
5.450000000000000400e-01 4.009138382932423417e-01
5.500000000000000444e-01 4.022209923992026703e-01
5.550000000000000488e-01 4.035711810951138623e-01
5.600000000000000533e-01 4.049658040182828600e-01
5.650000000000000577e-01 4.063978767125507319e-01
5.700000000000000622e-01 4.078499435794945560e-01
5.750000000000000666e-01 4.093456833406570738e-01
5.799999999999999600e-01 4.108408786758966924e-01
5.849999999999999645e-01 4.123001249913828548e-01
5.899999999999999689e-01 4.137846642374242156e-01
5.949999999999999734e-01 4.152446524662145033e-01
5.999999999999999778e-01 4.167032997725918508e-01
6.049999999999999822e-01 4.181765260892357783e-01
6.099999999999999867e-01 4.196200442823950771e-01
6.149999999999999911e-01 4.210288980691178073e-01
6.199999999999999956e-01 4.224854738294106515e-01
6.250000000000000000e-01 4.239362148161071042e-01
6.300000000000000044e-01 4.253661506595965425e-01
6.350000000000000089e-01 4.268208373096882280e-01
6.400000000000000133e-01 4.282645343719272413e-01
6.450000000000000178e-01 4.297384936483079065e-01
6.500000000000000222e-01 4.312320896560308259e-01
6.550000000000000266e-01 4.327289007793370668e-01
6.600000000000000311e-01 4.342548167539146409e-01
6.650000000000000355e-01 4.358277024563035340e-01
6.700000000000000400e-01 4.374005099512628392e-01
6.750000000000000444e-01 4.389860218207431997e-01
6.800000000000000488e-01 4.405812832986684136e-01
6.850000000000000533e-01 4.421602481170855969e-01
6.900000000000000577e-01 4.437532446935769648e-01
6.950000000000000622e-01 4.453614995129333010e-01
7.000000000000000666e-01 4.469897103157312035e-01
7.049999999999999600e-01 4.485873418596652562e-01
7.099999999999999645e-01 4.502373547377042651e-01
7.149999999999999689e-01 4.518965532857008305e-01
7.199999999999999734e-01 4.535478635680349480e-01
7.249999999999999778e-01 4.552194996610391398e-01
7.299999999999999822e-01 4.568741203035436849e-01
7.349999999999999867e-01 4.585079880366333405e-01
7.399999999999999911e-01 4.601377082179956557e-01
7.449999999999999956e-01 4.617120380181120587e-01
7.500000000000000000e-01 4.632313669196661543e-01
7.550000000000000044e-01 4.646861300720242505e-01
7.600000000000000089e-01 4.661405243454305736e-01
7.650000000000000133e-01 4.675448449161521691e-01
7.700000000000000178e-01 4.689322439094626982e-01
7.750000000000000222e-01 4.703688106894425847e-01
7.800000000000000266e-01 4.718065201836382228e-01
7.850000000000000311e-01 4.732628228199997067e-01
7.900000000000000355e-01 4.747794314880672273e-01
7.950000000000000400e-01 4.763251413945721047e-01
8.000000000000000444e-01 4.779243618276913796e-01
8.050000000000000488e-01 4.795535329658225376e-01
8.100000000000000533e-01 4.812140681069586590e-01
8.150000000000000577e-01 4.828568542814082876e-01
8.200000000000000622e-01 4.844987238312882805e-01
8.250000000000000666e-01 4.861013732813517230e-01
8.300000000000000711e-01 4.876540731774074988e-01
8.349999999999999645e-01 4.891650742666021623e-01
8.399999999999999689e-01 4.905965247106964244e-01
8.449999999999999734e-01 4.920413304404520072e-01
8.499999999999999778e-01 4.934113974121574486e-01
8.549999999999999822e-01 4.947296473379149684e-01
8.599999999999999867e-01 4.960656032343717103e-01
8.649999999999999911e-01 4.973954179800154085e-01
8.699999999999999956e-01 4.987156222761462421e-01
8.750000000000000000e-01 5.000515883616329926e-01
8.800000000000000044e-01 5.014004907497466856e-01
8.850000000000000089e-01 5.027678307013407899e-01
8.900000000000000133e-01 5.041924079410995407e-01
8.950000000000000178e-01 5.055916821976286224e-01
9.000000000000000222e-01 5.070214610772271202e-01
9.050000000000000266e-01 5.084622920255182921e-01
9.100000000000000311e-01 5.098907875054181638e-01
9.150000000000000355e-01 5.113116314559694731e-01
9.200000000000000400e-01 5.127474209010861594e-01
9.250000000000000444e-01 5.141737541446331772e-01
9.300000000000000488e-01 5.156012166039856126e-01
9.350000000000000533e-01 5.170090402915434868e-01
9.400000000000000577e-01 5.184077503080187777e-01
9.450000000000000622e-01 5.197646416548351578e-01
9.500000000000000666e-01 5.211233055356385702e-01
9.550000000000000711e-01 5.224616053574571151e-01
9.599999999999999645e-01 5.237731757777941421e-01
9.649999999999999689e-01 5.250811309947349681e-01
9.699999999999999734e-01 5.263589568472175628e-01
9.749999999999999778e-01 5.276607526853763774e-01
9.799999999999999822e-01 5.289751952337848895e-01
9.849999999999999867e-01 5.302933763760077079e-01
9.899999999999999911e-01 5.316523364502108162e-01
9.949999999999999956e-01 5.330743542630144161e-01
1.000000000000000000e+00 5.345203659557165032e-01
1.005000000000000115e+00 5.360282157107558731e-01
1.010000000000000009e+00 5.375760179749224932e-01
1.015000000000000124e+00 5.392056877349229449e-01
1.020000000000000018e+00 5.408418536651862230e-01
1.024999999999999911e+00 5.425010499136755371e-01
1.030000000000000027e+00 5.441568859344478870e-01
1.034999999999999920e+00 5.458078631179215101e-01
1.040000000000000036e+00 5.474990126676289037e-01
1.044999999999999929e+00 5.491120933426939521e-01
1.050000000000000044e+00 5.506928499723973136e-01
1.054999999999999938e+00 5.522467020984673791e-01
1.060000000000000053e+00 5.537961897489850349e-01
1.064999999999999947e+00 5.553063706599838945e-01
1.070000000000000062e+00 5.567828660711782174e-01
1.074999999999999956e+00 5.582662498635976300e-01
1.080000000000000071e+00 5.597515511139784516e-01
1.084999999999999964e+00 5.612173230562146342e-01
1.090000000000000080e+00 5.626745243906136063e-01
1.094999999999999973e+00 5.641494730618060727e-01
1.100000000000000089e+00 5.655938409275731438e-01
1.104999999999999982e+00 5.670635499867472396e-01
1.110000000000000098e+00 5.685105577281399647e-01
1.114999999999999991e+00 5.699912669845014213e-01
1.120000000000000107e+00 5.714545175846196257e-01
1.125000000000000000e+00 5.729239975610258551e-01
1.130000000000000115e+00 5.743836447684774749e-01
1.135000000000000009e+00 5.758637851456983592e-01
1.140000000000000124e+00 5.773420697381996813e-01
1.145000000000000018e+00 5.788299272120049910e-01
1.150000000000000133e+00 5.803253065860423110e-01
1.155000000000000027e+00 5.818482824779763751e-01
1.159999999999999920e+00 5.833478110896039848e-01
1.165000000000000036e+00 5.848576768107704993e-01
1.169999999999999929e+00 5.863920232905576180e-01
1.175000000000000044e+00 5.879354918833684662e-01
1.179999999999999938e+00 5.894680571607204822e-01
1.185000000000000053e+00 5.910102520410580595e-01
1.189999999999999947e+00 5.925691841053909448e-01
1.195000000000000062e+00 5.941586683020126936e-01
1.199999999999999956e+00 5.957373730783538379e-01
1.205000000000000071e+00 5.973186381004917944e-01
1.209999999999999964e+00 5.988983060027279759e-01
1.215000000000000080e+00 6.004995545506425225e-01
1.219999999999999973e+00 6.021060033393800248e-01
1.225000000000000089e+00 6.037254214360094906e-01
1.229999999999999982e+00 6.053271798693130590e-01
1.235000000000000098e+00 6.069528007053600627e-01
1.239999999999999991e+00 6.085437432713479700e-01
1.245000000000000107e+00 6.101181080150139824e-01
1.250000000000000000e+00 6.117327641708025787e-01
1.255000000000000115e+00 6.133478587677061444e-01
1.260000000000000009e+00 6.149683783101635992e-01
1.265000000000000124e+00 6.166054580975801613e-01
1.270000000000000018e+00 6.183102230960673129e-01
1.275000000000000133e+00 6.200495340973188885e-01
1.280000000000000027e+00 6.218103677429847043e-01
1.284999999999999920e+00 6.236299102734768063e-01
1.290000000000000036e+00 6.254395487427296674e-01
1.294999999999999929e+00 6.272838242815550469e-01
1.300000000000000044e+00 6.291494741592225104e-01
1.304999999999999938e+00 6.309946713230967230e-01
1.310000000000000053e+00 6.328361033493550281e-01
1.314999999999999947e+00 6.346549758598855062e-01
1.320000000000000062e+00 6.364276105235607828e-01
1.324999999999999956e+00 6.381567333502333739e-01
1.330000000000000071e+00 6.398804708602335856e-01
1.334999999999999964e+00 6.415890678714324391e-01
1.340000000000000080e+00 6.432876949410498701e-01
1.344999999999999973e+00 6.449823547278037417e-01
1.350000000000000089e+00 6.466869106933337275e-01
1.354999999999999982e+00 6.484196021053866277e-01
1.360000000000000098e+00 6.501645129522117816e-01
1.364999999999999991e+00 6.519322524452086931e-01
1.370000000000000107e+00 6.537375502572139174e-01
1.375000000000000000e+00 6.555337283960344097e-01
1.380000000000000115e+00 6.573601194857763286e-01
1.385000000000000009e+00 6.591606739911134438e-01
1.390000000000000124e+00 6.609434447256350431e-01
1.395000000000000018e+00 6.627015268202395282e-01
1.400000000000000133e+00 6.644448834258340764e-01
1.405000000000000027e+00 6.662100783764915990e-01
1.409999999999999920e+00 6.679213431268071766e-01
1.415000000000000036e+00 6.696711174366770658e-01
1.419999999999999929e+00 6.713915329136040944e-01
1.425000000000000044e+00 6.731819515798350695e-01
1.429999999999999938e+00 6.749771084710609603e-01
1.435000000000000053e+00 6.768189420377230814e-01
1.439999999999999947e+00 6.786658476982863064e-01
1.445000000000000062e+00 6.805247784646515363e-01
1.449999999999999956e+00 6.824246515685995496e-01
1.455000000000000071e+00 6.843468460427651889e-01
1.459999999999999964e+00 6.862665369406394378e-01
1.465000000000000080e+00 6.882232042871644362e-01
1.469999999999999973e+00 6.901900978978452450e-01
1.475000000000000089e+00 6.921494425172569631e-01
1.479999999999999982e+00 6.941498285113769651e-01
1.485000000000000098e+00 6.961299046479006991e-01
1.489999999999999991e+00 6.981272949588486210e-01
1.495000000000000107e+00 7.001549555579653639e-01
1.500000000000000000e+00 7.021420765486737769e-01
1.505000000000000115e+00 7.041153411812202112e-01
1.510000000000000009e+00 7.060679342407926162e-01
1.515000000000000124e+00 7.079979925064568969e-01
1.520000000000000018e+00 7.099337869520065958e-01
1.525000000000000133e+00 7.118948700677698582e-01
1.530000000000000027e+00 7.137915059855491906e-01
1.535000000000000142e+00 7.157102085866330343e-01
1.540000000000000036e+00 7.176311500282906986e-01
1.544999999999999929e+00 7.195298949294929303e-01
1.550000000000000044e+00 7.214399532370495693e-01
1.554999999999999938e+00 7.233640829236912539e-01
1.560000000000000053e+00 7.253131476716548898e-01
1.564999999999999947e+00 7.272476410174530947e-01
1.570000000000000062e+00 7.291894205231402859e-01
1.574999999999999956e+00 7.311419679436778063e-01
1.580000000000000071e+00 7.330732212352828459e-01
1.584999999999999964e+00 7.350279049408035004e-01
1.590000000000000080e+00 7.369423491880064958e-01
1.594999999999999973e+00 7.388427038196199170e-01
1.600000000000000089e+00 7.407418784157826508e-01
1.604999999999999982e+00 7.426360036450313507e-01
1.610000000000000098e+00 7.445232109226750383e-01
1.614999999999999991e+00 7.464024825276019959e-01
1.620000000000000107e+00 7.482665542497124456e-01
1.625000000000000000e+00 7.501257529762318521e-01
1.630000000000000115e+00 7.519771100072824010e-01
1.635000000000000009e+00 7.538281221962908063e-01
1.640000000000000124e+00 7.556867139249632270e-01
1.645000000000000018e+00 7.575792640349738871e-01
1.650000000000000133e+00 7.594603110956819059e-01
1.655000000000000027e+00 7.613484306181373951e-01
1.660000000000000142e+00 7.632754141576579832e-01
1.665000000000000036e+00 7.652003865058719656e-01
1.669999999999999929e+00 7.671273454967645344e-01
1.675000000000000044e+00 7.691245921203460068e-01
1.679999999999999938e+00 7.711330324813079340e-01
1.685000000000000053e+00 7.731681681240902826e-01
1.689999999999999947e+00 7.752079880376789855e-01
1.695000000000000062e+00 7.772448230217122722e-01
1.699999999999999956e+00 7.792996621404346680e-01
1.705000000000000071e+00 7.813671878120759251e-01
1.709999999999999964e+00 7.834037151412855948e-01
1.715000000000000080e+00 7.853962649072476765e-01
1.719999999999999973e+00 7.874163873356069265e-01
1.725000000000000089e+00 7.893865455126757302e-01
1.729999999999999982e+00 7.913587609953870450e-01
1.735000000000000098e+00 7.933051462160066736e-01
1.739999999999999991e+00 7.951931264245636344e-01
1.745000000000000107e+00 7.971064457588146190e-01
1.750000000000000000e+00 7.990261139676121394e-01
1.755000000000000115e+00 8.009119309053455149e-01
1.760000000000000009e+00 8.027773816320216138e-01
1.765000000000000124e+00 8.046830297371317942e-01
1.770000000000000018e+00 8.065829115358729151e-01
1.775000000000000133e+00 8.084866231610998710e-01
1.780000000000000027e+00 8.104000522005666562e-01
1.785000000000000142e+00 8.123264565636381107e-01
1.790000000000000036e+00 8.142508915426058813e-01
1.794999999999999929e+00 8.162134322506364725e-01
1.800000000000000044e+00 8.181658418699567781e-01
1.804999999999999938e+00 8.201457314161245682e-01
1.810000000000000053e+00 8.221034303647403174e-01
1.814999999999999947e+00 8.240504362053184817e-01
1.820000000000000062e+00 8.259980030949359842e-01
1.824999999999999956e+00 8.279368484115048332e-01
1.830000000000000071e+00 8.298182873524595493e-01
1.834999999999999964e+00 8.317139097468392306e-01
1.840000000000000080e+00 8.336101153448790546e-01
1.844999999999999973e+00 8.354908038061196196e-01
1.850000000000000089e+00 8.374136154008030575e-01
1.854999999999999982e+00 8.393332752744548930e-01
1.860000000000000098e+00 8.413119456699733600e-01
1.864999999999999991e+00 8.433268715485605638e-01
1.870000000000000107e+00 8.453814502321724822e-01
1.875000000000000000e+00 8.474695114577631694e-01
1.880000000000000115e+00 8.495685743315755101e-01
1.885000000000000009e+00 8.516692247741289856e-01
1.890000000000000124e+00 8.537824894072383319e-01
1.895000000000000018e+00 8.558750802120542733e-01
1.900000000000000133e+00 8.579216955670373457e-01
1.905000000000000027e+00 8.599595781203641653e-01
1.910000000000000142e+00 8.619559240705771952e-01
1.915000000000000036e+00 8.638863392099216387e-01
1.919999999999999929e+00 8.658177387202836695e-01
1.925000000000000044e+00 8.676528823779098287e-01
1.929999999999999938e+00 8.695252201002904302e-01
1.935000000000000053e+00 8.713563119881266861e-01
1.939999999999999947e+00 8.732212070867143572e-01
1.945000000000000062e+00 8.751200206683176219e-01
1.949999999999999956e+00 8.770826841859686862e-01
1.955000000000000071e+00 8.790757060651231969e-01
1.959999999999999964e+00 8.810798385709863734e-01
1.965000000000000080e+00 8.831262663297468896e-01
1.969999999999999973e+00 8.851598357012627760e-01
1.975000000000000089e+00 8.872224811681193035e-01
1.979999999999999982e+00 8.892642476608345614e-01
1.985000000000000098e+00 8.912841800261401826e-01
1.989999999999999991e+00 8.932861303539765263e-01
