# time (ps)	msd (pm2)
0.000000000000000000e+00 1.402209190664344777e-05
5.000000000000000104e-03 2.654625659223982560e-03
1.000000000000000021e-02 1.027213934250981175e-02
1.499999999999999944e-02 2.194148703342700332e-02
2.000000000000000042e-02 3.642484380308848996e-02
2.500000000000000139e-02 5.225915717291410023e-02
2.999999999999999889e-02 6.817636809168566014e-02
3.500000000000000333e-02 8.311669074925040479e-02
4.000000000000000083e-02 9.641797577174140987e-02
4.499999999999999833e-02 1.077836395909676781e-01
5.000000000000000278e-02 1.172416531101323212e-01
5.500000000000000028e-02 1.250669181724760048e-01
5.999999999999999778e-02 1.316886488736774552e-01
6.500000000000000222e-02 1.374889835768777768e-01
7.000000000000000666e-02 1.428976203776315679e-01
7.499999999999999722e-02 1.482186277956281384e-01
8.000000000000000167e-02 1.535971029651417297e-01
8.500000000000000611e-02 1.591042983994888360e-01
8.999999999999999667e-02 1.647887467683184504e-01
9.500000000000000111e-02 1.705288568716925857e-01
1.000000000000000056e-01 1.762790244233036763e-01
1.049999999999999961e-01 1.818837878908638184e-01
1.100000000000000006e-01 1.873429848559435007e-01
1.150000000000000050e-01 1.925404792328333503e-01
1.199999999999999956e-01 1.975389810258267320e-01
1.250000000000000000e-01 2.023050181594963637e-01
1.300000000000000044e-01 2.069037100062660062e-01
1.350000000000000089e-01 2.113562013615931101e-01
1.400000000000000133e-01 2.157348232968655521e-01
1.449999999999999900e-01 2.200240424340265677e-01
1.499999999999999944e-01 2.242759384525799260e-01
1.549999999999999989e-01 2.284410892833647067e-01
1.600000000000000033e-01 2.325491709385325012e-01
1.650000000000000078e-01 2.365591647703041978e-01
1.700000000000000122e-01 2.404736489475637340e-01
1.750000000000000167e-01 2.442030238781161544e-01
1.799999999999999933e-01 2.477943699768241914e-01
1.849999999999999978e-01 2.512006172145975214e-01
1.900000000000000022e-01 2.544347655476413839e-01
1.950000000000000067e-01 2.575050939932805316e-01
2.000000000000000111e-01 2.604444702080393470e-01
2.050000000000000155e-01 2.632641849129019884e-01
2.099999999999999922e-01 2.660227554851988807e-01
2.149999999999999967e-01 2.687575929140912367e-01
2.200000000000000011e-01 2.715229590711322749e-01
2.250000000000000056e-01 2.742643537433182011e-01
2.300000000000000100e-01 2.770670600038240283e-01
2.350000000000000144e-01 2.799394703892954528e-01
2.399999999999999911e-01 2.828288041331387115e-01
2.449999999999999956e-01 2.857465015493633742e-01
2.500000000000000000e-01 2.886580680763084494e-01
2.550000000000000044e-01 2.915361952501225873e-01
2.600000000000000089e-01 2.943607721729175064e-01
2.650000000000000133e-01 2.971438167227772320e-01
2.700000000000000178e-01 2.998947287363488146e-01
2.750000000000000222e-01 3.026117682874363002e-01
2.800000000000000266e-01 3.052895596483806706e-01
2.850000000000000311e-01 3.079564694588635687e-01
2.899999999999999800e-01 3.106512584056174142e-01
2.949999999999999845e-01 3.133626334851813411e-01
2.999999999999999889e-01 3.161035324665384394e-01
3.049999999999999933e-01 3.188493795268119713e-01
3.099999999999999978e-01 3.216037595106833735e-01
3.150000000000000022e-01 3.243845967536890806e-01
3.200000000000000067e-01 3.271387367207413965e-01
3.250000000000000111e-01 3.298799640015170898e-01
3.300000000000000155e-01 3.325882922265432917e-01
3.350000000000000200e-01 3.352610507206786328e-01
3.400000000000000244e-01 3.378913843176242215e-01
3.450000000000000289e-01 3.404822673387660759e-01
3.500000000000000333e-01 3.430474315111564643e-01
3.549999999999999822e-01 3.455900800013051444e-01
3.599999999999999867e-01 3.481373996837994755e-01
3.649999999999999911e-01 3.506645670914362301e-01
3.699999999999999956e-01 3.532077968555195069e-01
3.750000000000000000e-01 3.557368260308549912e-01
3.800000000000000044e-01 3.582553427081525133e-01
3.850000000000000089e-01 3.607778868911528103e-01
3.900000000000000133e-01 3.633142807483819570e-01
3.950000000000000178e-01 3.658402614046644130e-01
4.000000000000000222e-01 3.683688814224269636e-01
4.050000000000000266e-01 3.708768218737890088e-01
4.100000000000000311e-01 3.733768845042680917e-01
4.150000000000000355e-01 3.758633468129490840e-01
4.199999999999999845e-01 3.783239136607798314e-01
4.249999999999999889e-01 3.807125893324198596e-01
4.299999999999999933e-01 3.830741388210680554e-01
4.349999999999999978e-01 3.853570377231552158e-01
4.400000000000000022e-01 3.875519752623124425e-01
4.450000000000000067e-01 3.896443071248415491e-01
4.500000000000000111e-01 3.916745334230079534e-01
4.550000000000000155e-01 3.936408343115109787e-01
4.600000000000000200e-01 3.955609599884446492e-01
4.650000000000000244e-01 3.974146347026197290e-01
4.700000000000000289e-01 3.992682635493175480e-01
4.750000000000000333e-01 4.010982202477785252e-01
4.799999999999999822e-01 4.029554722738685202e-01
4.849999999999999867e-01 4.047840509619530236e-01
4.899999999999999911e-01 4.066236489103813856e-01
4.949999999999999956e-01 4.084254633270389956e-01
5.000000000000000000e-01 4.102075856401725673e-01
5.050000000000000044e-01 4.119061290269699915e-01
5.100000000000000089e-01 4.135634271137024198e-01
5.150000000000000133e-01 4.151374110125576333e-01
5.200000000000000178e-01 4.166727461148108658e-01
5.250000000000000222e-01 4.181393230572348907e-01
5.300000000000000266e-01 4.196148901688520061e-01
5.350000000000000311e-01 4.210428315878382843e-01
5.400000000000000355e-01 4.224838601997753518e-01
5.450000000000000400e-01 4.239238158580548310e-01
5.500000000000000444e-01 4.253952692895365262e-01
5.550000000000000488e-01 4.268792414910825839e-01
5.600000000000000533e-01 4.283774881767478115e-01
5.650000000000000577e-01 4.298861345502732467e-01
5.700000000000000622e-01 4.314251730011519070e-01
5.750000000000000666e-01 4.329600307388691283e-01
5.799999999999999600e-01 4.345554251419406766e-01
5.849999999999999645e-01 4.361103442369459460e-01
5.899999999999999689e-01 4.377149352758148426e-01
5.949999999999999734e-01 4.393091362398412469e-01
5.999999999999999778e-01 4.409218303713356990e-01
6.049999999999999822e-01 4.425137165168188114e-01
6.099999999999999867e-01 4.441273417395942280e-01
6.149999999999999911e-01 4.457283298156755613e-01
6.199999999999999956e-01 4.473076301267491228e-01
6.250000000000000000e-01 4.488393846579079582e-01
6.300000000000000044e-01 4.503577612015371434e-01
6.350000000000000089e-01 4.518303147875173398e-01
6.400000000000000133e-01 4.532655371236141706e-01
6.450000000000000178e-01 4.546620298273232885e-01
6.500000000000000222e-01 4.560516759370866202e-01
6.550000000000000266e-01 4.574196747128119744e-01
6.600000000000000311e-01 4.588043527690829348e-01
6.650000000000000355e-01 4.601769701530271650e-01
6.700000000000000400e-01 4.615577754579721637e-01
6.750000000000000444e-01 4.629710271237897912e-01
6.800000000000000488e-01 4.643889581406982492e-01
6.850000000000000533e-01 4.657553965993329603e-01
6.900000000000000577e-01 4.671741276979446411e-01
6.950000000000000622e-01 4.685619877434266112e-01
7.000000000000000666e-01 4.699417915159194159e-01
7.049999999999999600e-01 4.712794721425502820e-01
7.099999999999999645e-01 4.726209460081723934e-01
7.149999999999999689e-01 4.739496566604066707e-01
7.199999999999999734e-01 4.752807977936502892e-01
7.249999999999999778e-01 4.766235963578209223e-01
7.299999999999999822e-01 4.779735681522535584e-01
7.349999999999999867e-01 4.793239975281448073e-01
7.399999999999999911e-01 4.807062696753136022e-01
7.449999999999999956e-01 4.820576832794433164e-01
7.500000000000000000e-01 4.834683880906671671e-01
7.550000000000000044e-01 4.848709792149107356e-01
7.600000000000000089e-01 4.862934805023763074e-01
7.650000000000000133e-01 4.876627559632450426e-01
7.700000000000000178e-01 4.890558759200548389e-01
7.750000000000000222e-01 4.904187671660025227e-01
7.800000000000000266e-01 4.917957205026445289e-01
7.850000000000000311e-01 4.931344091260329021e-01
7.900000000000000355e-01 4.944651483632981348e-01
7.950000000000000400e-01 4.958189364895305706e-01
8.000000000000000444e-01 4.971330759961677392e-01
8.050000000000000488e-01 4.984447977159784937e-01
8.100000000000000533e-01 4.997420067149253020e-01
8.150000000000000577e-01 5.010065516430033394e-01
8.200000000000000622e-01 5.022980515900776766e-01
8.250000000000000666e-01 5.035527355378964787e-01
8.300000000000000711e-01 5.048148474103413275e-01
8.349999999999999645e-01 5.060786104454111367e-01
8.399999999999999689e-01 5.073379371746035149e-01
8.449999999999999734e-01 5.085967489500409222e-01
8.499999999999999778e-01 5.098591927102650301e-01
8.549999999999999822e-01 5.111001767018008568e-01
8.599999999999999867e-01 5.123821830870313176e-01
8.649999999999999911e-01 5.136476036075191542e-01
8.699999999999999956e-01 5.149060839253554178e-01
8.750000000000000000e-01 5.161527315949139272e-01
8.800000000000000044e-01 5.174108712159596335e-01
8.850000000000000089e-01 5.186326334715448683e-01
8.900000000000000133e-01 5.198484199342752188e-01
8.950000000000000178e-01 5.211047138094583309e-01
9.000000000000000222e-01 5.223189820850008269e-01
9.050000000000000266e-01 5.235301034770744044e-01
9.100000000000000311e-01 5.247480500086538768e-01
9.150000000000000355e-01 5.259868272704962822e-01
9.200000000000000400e-01 5.272212542876479890e-01
9.250000000000000444e-01 5.284375699465905241e-01
9.300000000000000488e-01 5.296941473513450127e-01
9.350000000000000533e-01 5.309161594460162226e-01
9.400000000000000577e-01 5.321807536191380805e-01
9.450000000000000622e-01 5.334061258225671898e-01
9.500000000000000666e-01 5.346625297769699303e-01
9.550000000000000711e-01 5.359158205796822338e-01
9.599999999999999645e-01 5.371805220958647542e-01
9.649999999999999689e-01 5.384410605952770768e-01
9.699999999999999734e-01 5.397375611306455268e-01
9.749999999999999778e-01 5.410381963489966362e-01
9.799999999999999822e-01 5.423830566317995316e-01
9.849999999999999867e-01 5.437384540356439144e-01
9.899999999999999911e-01 5.451052705600819559e-01
9.949999999999999956e-01 5.464878353622327767e-01
1.000000000000000000e+00 5.478931105950379798e-01
1.005000000000000115e+00 5.492581984879293389e-01
1.010000000000000009e+00 5.506608205509625487e-01
1.015000000000000124e+00 5.520410343529839059e-01
1.020000000000000018e+00 5.534585193417033144e-01
1.024999999999999911e+00 5.548422353108658500e-01
1.030000000000000027e+00 5.562631229504955144e-01
1.034999999999999920e+00 5.576923631183291485e-01
1.040000000000000036e+00 5.591604833885036596e-01
1.044999999999999929e+00 5.606157390047415978e-01
1.050000000000000044e+00 5.621135826505830879e-01
1.054999999999999938e+00 5.636073799353856772e-01
1.060000000000000053e+00 5.651073136752219339e-01
1.064999999999999947e+00 5.665774334883696417e-01
1.070000000000000062e+00 5.680252749418841507e-01
1.074999999999999956e+00 5.694129516322437023e-01
1.080000000000000071e+00 5.707776498054563108e-01
1.084999999999999964e+00 5.720596533870477840e-01
1.090000000000000080e+00 5.733368998795689286e-01
1.094999999999999973e+00 5.745609565982253697e-01
1.100000000000000089e+00 5.757778034902912845e-01
1.104999999999999982e+00 5.769579969013520770e-01
1.110000000000000098e+00 5.781594854527180027e-01
1.114999999999999991e+00 5.793550679703211026e-01
1.120000000000000107e+00 5.805866054493672435e-01
1.125000000000000000e+00 5.817787632205901893e-01
1.130000000000000115e+00 5.830160334465784855e-01
1.135000000000000009e+00 5.842116962711680905e-01
1.140000000000000124e+00 5.854069520193254661e-01
1.145000000000000018e+00 5.866017367948316297e-01
1.150000000000000133e+00 5.878053618894573118e-01
1.155000000000000027e+00 5.890076305742627527e-01
1.159999999999999920e+00 5.902276386966149868e-01
1.165000000000000036e+00 5.914609481026685822e-01
1.169999999999999929e+00 5.927281352444769835e-01
1.175000000000000044e+00 5.940065783090737739e-01
1.179999999999999938e+00 5.953050928512956252e-01
1.185000000000000053e+00 5.966040288254093049e-01
1.189999999999999947e+00 5.979382441992467934e-01
1.195000000000000062e+00 5.992334075327010456e-01
1.199999999999999956e+00 6.005273814416289824e-01
1.205000000000000071e+00 6.018100386133555801e-01
1.209999999999999964e+00 6.030541375844934437e-01
1.215000000000000080e+00 6.043077915074753781e-01
1.219999999999999973e+00 6.055053660883856770e-01
1.225000000000000089e+00 6.067357567968191256e-01
1.229999999999999982e+00 6.079433422314912683e-01
1.235000000000000098e+00 6.091728371738229786e-01
1.239999999999999991e+00 6.104343835541973240e-01
1.245000000000000107e+00 6.116976370873217217e-01
1.250000000000000000e+00 6.130157059257147489e-01
1.255000000000000115e+00 6.143489375834865207e-01
1.260000000000000009e+00 6.157171493081116109e-01
1.265000000000000124e+00 6.171027939449743593e-01
1.270000000000000018e+00 6.185268141653091911e-01
1.275000000000000133e+00 6.199662072945398839e-01
1.280000000000000027e+00 6.214395673243182650e-01
1.284999999999999920e+00 6.228890799287885027e-01
1.290000000000000036e+00 6.243550822775699727e-01
1.294999999999999929e+00 6.258236987069819568e-01
1.300000000000000044e+00 6.273129379916879689e-01
1.304999999999999938e+00 6.287739887716367049e-01
1.310000000000000053e+00 6.302933775620046530e-01
1.314999999999999947e+00 6.317767644959100259e-01
1.320000000000000062e+00 6.332764620121096311e-01
1.324999999999999956e+00 6.347442261167822730e-01
1.330000000000000071e+00 6.362099662227916896e-01
1.334999999999999964e+00 6.376820860993615003e-01
1.340000000000000080e+00 6.390877572842036392e-01
1.344999999999999973e+00 6.404644851341702028e-01
1.350000000000000089e+00 6.418233619571056536e-01
1.354999999999999982e+00 6.431556583599546961e-01
1.360000000000000098e+00 6.444760392496052814e-01
1.364999999999999991e+00 6.457562236094956942e-01
1.370000000000000107e+00 6.470636401761621359e-01
1.375000000000000000e+00 6.483675815240864670e-01
1.380000000000000115e+00 6.496998127299337122e-01
1.385000000000000009e+00 6.509859683622950532e-01
1.390000000000000124e+00 6.523068740530745258e-01
1.395000000000000018e+00 6.536437589147776617e-01
1.400000000000000133e+00 6.549665391683080484e-01
1.405000000000000027e+00 6.562705508894753903e-01
1.409999999999999920e+00 6.575729975118619342e-01
1.415000000000000036e+00 6.588753125690539614e-01
1.419999999999999929e+00 6.601399991425949132e-01
1.425000000000000044e+00 6.614120038076566344e-01
1.429999999999999938e+00 6.627053417491123311e-01
1.435000000000000053e+00 6.639988866124079125e-01
1.439999999999999947e+00 6.653489792514304391e-01
1.445000000000000062e+00 6.666992111589260528e-01
1.449999999999999956e+00 6.680983260917165989e-01
1.455000000000000071e+00 6.695314349910140850e-01
1.459999999999999964e+00 6.710030776559176013e-01
1.465000000000000080e+00 6.725058043974964095e-01
1.469999999999999973e+00 6.740248793210382727e-01
1.475000000000000089e+00 6.755768895087769232e-01
1.479999999999999982e+00 6.771214375451964917e-01
1.485000000000000098e+00 6.786577379460264625e-01
1.489999999999999991e+00 6.801781023042677843e-01
1.495000000000000107e+00 6.817164928869150486e-01
1.500000000000000000e+00 6.832448058719060580e-01
1.505000000000000115e+00 6.847250077768239906e-01
1.510000000000000009e+00 6.862274426845893505e-01
1.515000000000000124e+00 6.877141008983574944e-01
1.520000000000000018e+00 6.892064430041366929e-01
1.525000000000000133e+00 6.906648424946378872e-01
1.530000000000000027e+00 6.921199040430211502e-01
1.535000000000000142e+00 6.936298675061680630e-01
1.540000000000000036e+00 6.951440727261425367e-01
1.544999999999999929e+00 6.966316926201143733e-01
1.550000000000000044e+00 6.981486601747887155e-01
1.554999999999999938e+00 6.997027675894528231e-01
1.560000000000000053e+00 7.012884168271608099e-01
1.564999999999999947e+00 7.028877336115434415e-01
1.570000000000000062e+00 7.044998702924044620e-01
1.574999999999999956e+00 7.061833725955669605e-01
1.580000000000000071e+00 7.078807411025923590e-01
1.584999999999999964e+00 7.095843050407565356e-01
1.590000000000000080e+00 7.113377920437765622e-01
1.594999999999999973e+00 7.130647027018123252e-01
1.600000000000000089e+00 7.148618025940784992e-01
1.604999999999999982e+00 7.165734129414046416e-01
1.610000000000000098e+00 7.182735474511885432e-01
1.614999999999999991e+00 7.199350210911488190e-01
1.620000000000000107e+00 7.215799568768332950e-01
1.625000000000000000e+00 7.231163503987828589e-01
1.630000000000000115e+00 7.246524289037674649e-01
1.635000000000000009e+00 7.261386442580690659e-01
1.640000000000000124e+00 7.276097783066236557e-01
1.645000000000000018e+00 7.290452946500681763e-01
1.650000000000000133e+00 7.305258496044265693e-01
1.655000000000000027e+00 7.319821723256633161e-01
1.660000000000000142e+00 7.334844403164254567e-01
1.665000000000000036e+00 7.350219979566062767e-01
1.669999999999999929e+00 7.365901539019170663e-01
1.675000000000000044e+00 7.382223632326426754e-01
1.679999999999999938e+00 7.399217642205057066e-01
1.685000000000000053e+00 7.416422674075321408e-01
1.689999999999999947e+00 7.434143999434214001e-01
1.695000000000000062e+00 7.452031171650616015e-01
1.699999999999999956e+00 7.469972760862420014e-01
1.705000000000000071e+00 7.487434090867058911e-01
1.709999999999999964e+00 7.504822176951460033e-01
1.715000000000000080e+00 7.521640164617736657e-01
1.719999999999999973e+00 7.537805449875145669e-01
1.725000000000000089e+00 7.553142480274380732e-01
1.729999999999999982e+00 7.568462245488072337e-01
1.735000000000000098e+00 7.583261427204945893e-01
1.739999999999999991e+00 7.598022629393178518e-01
1.745000000000000107e+00 7.612541953319451604e-01
1.750000000000000000e+00 7.627288266314710130e-01
1.755000000000000115e+00 7.642476589065448911e-01
1.760000000000000009e+00 7.657751695315596629e-01
1.765000000000000124e+00 7.673268951275014071e-01
1.770000000000000018e+00 7.688678687816538071e-01
1.775000000000000133e+00 7.704282095338014225e-01
1.780000000000000027e+00 7.720228121589012282e-01
1.785000000000000142e+00 7.735698083837989625e-01
1.790000000000000036e+00 7.750931581875135645e-01
1.794999999999999929e+00 7.766243068463208887e-01
1.800000000000000044e+00 7.781201452229736804e-01
1.804999999999999938e+00 7.795951954626535452e-01
1.810000000000000053e+00 7.810962128322480602e-01
1.814999999999999947e+00 7.825980807827244146e-01
1.820000000000000062e+00 7.841226637735889682e-01
1.824999999999999956e+00 7.856766463978901438e-01
1.830000000000000071e+00 7.872521469106061875e-01
1.834999999999999964e+00 7.888595636719373250e-01
1.840000000000000080e+00 7.905027517260743153e-01
1.844999999999999973e+00 7.921263602355423927e-01
1.850000000000000089e+00 7.937732326442030750e-01
1.854999999999999982e+00 7.953926117477225777e-01
1.860000000000000098e+00 7.970045181808351753e-01
1.864999999999999991e+00 7.985945787749906266e-01
1.870000000000000107e+00 8.001372778735567071e-01
1.875000000000000000e+00 8.016637109149040707e-01
1.880000000000000115e+00 8.031962751656336330e-01
1.885000000000000009e+00 8.047010947799129177e-01
1.890000000000000124e+00 8.062287338472242659e-01
1.895000000000000018e+00 8.077568343531191797e-01
1.900000000000000133e+00 8.093546033408292040e-01
1.905000000000000027e+00 8.109325961553488504e-01
1.910000000000000142e+00 8.125861486899310648e-01
1.915000000000000036e+00 8.142428953296714234e-01
1.919999999999999929e+00 8.159601989132339028e-01
1.925000000000000044e+00 8.177094740001102924e-01
1.929999999999999938e+00 8.195064439080865792e-01
1.935000000000000053e+00 8.213265035243626500e-01
1.939999999999999947e+00 8.231654183788619239e-01
1.945000000000000062e+00 8.250239550469131711e-01
1.949999999999999956e+00 8.268539384573201367e-01
1.955000000000000071e+00 8.286793129513025935e-01
1.959999999999999964e+00 8.305305605665478375e-01
1.965000000000000080e+00 8.323326713070042793e-01
1.969999999999999973e+00 8.341361661632376023e-01
1.975000000000000089e+00 8.359333049944874805e-01
1.979999999999999982e+00 8.377492564494104510e-01
1.985000000000000098e+00 8.395620861257668821e-01
1.989999999999999991e+00 8.414423685339607051e-01
