# time (ps)	msd (A2)
0.000000000000000000e+00 2.841752549810285880e-06
5.000000000000000104e-03 2.665362229548910809e-03
1.000000000000000021e-02 1.032704949630862748e-02
1.499999999999999944e-02 2.210509332927682036e-02
2.000000000000000042e-02 3.666854528791550077e-02
2.500000000000000139e-02 5.259110007350369792e-02
2.999999999999999889e-02 6.856884035877364170e-02
3.500000000000000333e-02 8.352384675571544737e-02
4.000000000000000083e-02 9.679098297537773454e-02
4.499999999999999833e-02 1.080791335333508574e-01
5.000000000000000278e-02 1.174149676985116741e-01
5.500000000000000028e-02 1.251128226302734570e-01
5.999999999999999778e-02 1.316067743463762429e-01
6.500000000000000222e-02 1.373304488427829761e-01
7.000000000000000666e-02 1.427299763718722636e-01
7.499999999999999722e-02 1.481073328952835222e-01
8.000000000000000167e-02 1.536568098422642359e-01
8.500000000000000611e-02 1.594603751715231166e-01
8.999999999999999667e-02 1.655447169452995693e-01
9.500000000000000111e-02 1.717704876974896766e-01
1.000000000000000056e-01 1.780358573525874510e-01
1.049999999999999961e-01 1.841932389107158174e-01
1.100000000000000006e-01 1.901848843969294878e-01
1.150000000000000050e-01 1.958810538960669978e-01
1.199999999999999956e-01 2.012830957264415133e-01
1.250000000000000000e-01 2.063831282378149334e-01
1.300000000000000044e-01 2.112108373010550544e-01
1.350000000000000089e-01 2.158167575970337815e-01
1.400000000000000133e-01 2.202601748913723956e-01
1.449999999999999900e-01 2.245722291981950836e-01
1.499999999999999944e-01 2.288320903298026732e-01
1.549999999999999989e-01 2.329948608696328083e-01
1.600000000000000033e-01 2.371108876691185863e-01
1.650000000000000078e-01 2.411572916829222424e-01
1.700000000000000122e-01 2.451086116011091109e-01
1.750000000000000167e-01 2.489210660235808559e-01
1.799999999999999933e-01 2.525934780141461111e-01
1.849999999999999978e-01 2.560934565744705238e-01
1.900000000000000022e-01 2.594137617897407933e-01
1.950000000000000067e-01 2.625660328387911524e-01
2.000000000000000111e-01 2.655907383683653311e-01
2.050000000000000155e-01 2.684770134913979089e-01
2.099999999999999922e-01 2.713097704800944143e-01
2.149999999999999967e-01 2.741291349385599485e-01
2.200000000000000011e-01 2.769771959751488044e-01
2.250000000000000056e-01 2.798598246317944294e-01
2.300000000000000100e-01 2.828114623763504087e-01
2.350000000000000144e-01 2.858555625031884984e-01
2.399999999999999911e-01 2.889302800576568631e-01
2.449999999999999956e-01 2.920673240556393435e-01
2.500000000000000000e-01 2.951957614224203219e-01
2.550000000000000044e-01 2.983120751154846872e-01
2.600000000000000089e-01 3.013733045750732198e-01
2.650000000000000133e-01 3.043637562686603015e-01
2.700000000000000178e-01 3.072707881746529202e-01
2.750000000000000222e-01 3.101044457013690803e-01
2.800000000000000266e-01 3.128632565680913857e-01
2.850000000000000311e-01 3.155546107371557385e-01
2.899999999999999800e-01 3.182190082082422822e-01
2.949999999999999845e-01 3.208435338629528899e-01
2.999999999999999889e-01 3.234633380787512169e-01
3.049999999999999933e-01 3.260781335015272009e-01
3.099999999999999978e-01 3.286633434040511781e-01
3.150000000000000022e-01 3.312759812035008800e-01
3.200000000000000067e-01 3.338794184387287589e-01
3.250000000000000111e-01 3.364493956134724795e-01
3.300000000000000155e-01 3.389910199865236451e-01
3.350000000000000200e-01 3.415175244326791315e-01
3.400000000000000244e-01 3.439924209583853920e-01
3.450000000000000289e-01 3.464352925630104774e-01
3.500000000000000333e-01 3.488393141781072626e-01
3.549999999999999822e-01 3.512136573101101167e-01
3.599999999999999867e-01 3.535625131475990113e-01
3.649999999999999911e-01 3.558947907687499135e-01
3.699999999999999956e-01 3.582266802909052639e-01
3.750000000000000000e-01 3.605385208003177300e-01
3.800000000000000044e-01 3.628568523043684269e-01
3.850000000000000089e-01 3.651683801683945352e-01
3.900000000000000133e-01 3.675072742978226503e-01
3.950000000000000178e-01 3.698769207845848395e-01
4.000000000000000222e-01 3.722769241787624028e-01
4.050000000000000266e-01 3.746751937988797576e-01
4.100000000000000311e-01 3.771190424156693477e-01
4.150000000000000355e-01 3.795774323183043197e-01
4.199999999999999845e-01 3.820173904261305320e-01
4.249999999999999889e-01 3.844391481697757018e-01
4.299999999999999933e-01 3.868162524249603162e-01
4.349999999999999978e-01 3.891048848548081529e-01
4.400000000000000022e-01 3.913090183036334602e-01
4.450000000000000067e-01 3.933865483344582969e-01
4.500000000000000111e-01 3.953867336629515727e-01
4.550000000000000155e-01 3.972760992814096670e-01
4.600000000000000200e-01 3.990938640046839403e-01
4.650000000000000244e-01 4.008491908326494713e-01
4.700000000000000289e-01 4.025870685013835382e-01
4.750000000000000333e-01 4.043236404634498737e-01
4.799999999999999822e-01 4.061049006201897238e-01
4.849999999999999867e-01 4.079107641376781834e-01
4.899999999999999911e-01 4.097502376846687278e-01
4.949999999999999956e-01 4.116175133097370042e-01
5.000000000000000000e-01 4.135002781206740252e-01
5.050000000000000044e-01 4.153563081117206401e-01
5.100000000000000089e-01 4.171800187129616755e-01
5.150000000000000133e-01 4.189848117110608894e-01
5.200000000000000178e-01 4.207259743044081124e-01
5.250000000000000222e-01 4.224065698565260263e-01
5.300000000000000266e-01 4.240738636149479213e-01
5.350000000000000311e-01 4.256995165363019473e-01
5.400000000000000355e-01 4.273048579621225862e-01
5.450000000000000400e-01 4.289143844008880824e-01
5.500000000000000444e-01 4.305375353412033701e-01
5.550000000000000488e-01 4.321770631983636868e-01
5.600000000000000533e-01 4.338331020988432374e-01
5.650000000000000577e-01 4.354837078165485487e-01
5.700000000000000622e-01 4.371502250735359030e-01
5.750000000000000666e-01 4.388228497024135311e-01
5.799999999999999600e-01 4.405002534140892156e-01
5.849999999999999645e-01 4.421509033930872690e-01
5.899999999999999689e-01 4.438216169992584281e-01
5.949999999999999734e-01 4.454718059051012702e-01
5.999999999999999778e-01 4.471248759566719966e-01
6.049999999999999822e-01 4.487759528778300644e-01
6.099999999999999867e-01 4.504149824504237176e-01
6.149999999999999911e-01 4.520410579004432994e-01
6.199999999999999956e-01 4.536611404792745827e-01
6.250000000000000000e-01 4.552540604302970362e-01
6.300000000000000044e-01 4.568379264616518332e-01
6.350000000000000089e-01 4.584064729919716252e-01
6.400000000000000133e-01 4.599480077523157573e-01
6.450000000000000178e-01 4.614925019657061256e-01
6.500000000000000222e-01 4.630504075452690493e-01
6.550000000000000266e-01 4.646072497695887260e-01
6.600000000000000311e-01 4.662158220875462500e-01
6.650000000000000355e-01 4.678401850288638197e-01
6.700000000000000400e-01 4.694935719081581027e-01
6.750000000000000444e-01 4.711834161976622970e-01
6.800000000000000488e-01 4.729080533095492700e-01
6.850000000000000533e-01 4.746076511433837131e-01
6.900000000000000577e-01 4.763456052120737527e-01
6.950000000000000622e-01 4.780757004508585095e-01
7.000000000000000666e-01 4.798126900603371658e-01
7.049999999999999600e-01 4.815095217415971685e-01
7.099999999999999645e-01 4.832208632388204639e-01
7.149999999999999689e-01 4.849213910138141514e-01
7.199999999999999734e-01 4.866162522721526607e-01
7.249999999999999778e-01 4.883130662350911311e-01
7.299999999999999822e-01 4.900105923683895637e-01
7.349999999999999867e-01 4.916987499030168185e-01
7.399999999999999911e-01 4.934103892844114436e-01
7.449999999999999956e-01 4.950909572509825662e-01
7.500000000000000000e-01 4.967881181353915321e-01
7.550000000000000044e-01 4.984702820592066819e-01
7.600000000000000089e-01 5.001634329215546293e-01
7.650000000000000133e-01 5.018266277559241262e-01
7.700000000000000178e-01 5.034992568208672692e-01
7.750000000000000222e-01 5.051691821680254213e-01
7.800000000000000266e-01 5.068404362855716272e-01
7.850000000000000311e-01 5.084949397719106257e-01
7.900000000000000355e-01 5.101654112789947293e-01
7.950000000000000400e-01 5.118358858280119827e-01
8.000000000000000444e-01 5.135214686565979791e-01
8.050000000000000488e-01 5.151999265508557801e-01
8.100000000000000533e-01 5.169031596607940315e-01
8.150000000000000577e-01 5.185773138339858646e-01
8.200000000000000622e-01 5.202758674455297827e-01
8.250000000000000666e-01 5.219445594835817603e-01
8.300000000000000711e-01 5.236236831933788194e-01
8.349999999999999645e-01 5.252979557568577818e-01
8.399999999999999689e-01 5.269460715453851973e-01
8.449999999999999734e-01 5.285979018342391589e-01
8.499999999999999778e-01 5.302312441924134090e-01
8.549999999999999822e-01 5.318379569849757127e-01
8.599999999999999867e-01 5.334724907949074391e-01
8.649999999999999911e-01 5.350779778150491772e-01
8.699999999999999956e-01 5.366741645971080388e-01
8.750000000000000000e-01 5.382670731918657303e-01
8.800000000000000044e-01 5.398638401810171850e-01
8.850000000000000089e-01 5.414357948835305523e-01
8.900000000000000133e-01 5.430343363030687431e-01
8.950000000000000178e-01 5.446142378527022432e-01
9.000000000000000222e-01 5.461996089974047175e-01
9.050000000000000266e-01 5.477762168616177041e-01
9.100000000000000311e-01 5.493493856866411562e-01
9.150000000000000355e-01 5.509314049034007565e-01
9.200000000000000400e-01 5.525190385209612920e-01
9.250000000000000444e-01 5.540980314241990001e-01
9.300000000000000488e-01 5.556965154821725816e-01
9.350000000000000533e-01 5.572830273432466397e-01
9.400000000000000577e-01 5.588783025736033805e-01
9.450000000000000622e-01 5.604422039322115578e-01
9.500000000000000666e-01 5.620260462825535930e-01
9.550000000000000711e-01 5.636006731138053505e-01
9.599999999999999645e-01 5.651615339544017180e-01
9.649999999999999689e-01 5.667117138086691375e-01
9.699999999999999734e-01 5.682581921245447587e-01
9.749999999999999778e-01 5.698125970977252486e-01
9.799999999999999822e-01 5.713776819642594207e-01
9.849999999999999867e-01 5.729414222038772264e-01
9.899999999999999911e-01 5.745247820781478332e-01
9.949999999999999956e-01 5.761392305391160873e-01
1.000000000000000000e+00 5.777789647188502631e-01
1.005000000000000115e+00 5.794273795187083742e-01
1.010000000000000009e+00 5.811128539549520466e-01
1.015000000000000124e+00 5.828329232428899331e-01
1.020000000000000018e+00 5.845749180628598829e-01
1.024999999999999911e+00 5.863325024895310600e-01
1.030000000000000027e+00 5.880898330422884568e-01
1.034999999999999920e+00 5.898715921404869000e-01
1.040000000000000036e+00 5.916833466490113436e-01
1.044999999999999929e+00 5.934458266427015127e-01
1.050000000000000044e+00 5.952318858245267963e-01
1.054999999999999938e+00 5.970002239908209773e-01
1.060000000000000053e+00 5.987747312519791087e-01
1.064999999999999947e+00 6.005238620366485369e-01
1.070000000000000062e+00 6.022571804412363283e-01
1.074999999999999956e+00 6.039803262851174415e-01
1.080000000000000071e+00 6.056906987256794883e-01
1.084999999999999964e+00 6.073589351567213468e-01
1.090000000000000080e+00 6.090260213070161077e-01
1.094999999999999973e+00 6.106746631233027633e-01
1.100000000000000089e+00 6.122954665038081723e-01
1.104999999999999982e+00 6.139039223089638453e-01
1.110000000000000098e+00 6.154997832399636826e-01
1.114999999999999991e+00 6.170984464752719001e-01
1.120000000000000107e+00 6.187039034300400031e-01
1.125000000000000000e+00 6.202929531241233585e-01
1.130000000000000115e+00 6.219143408193695821e-01
1.135000000000000009e+00 6.235318885944132195e-01
1.140000000000000124e+00 6.251592775847719663e-01
1.145000000000000018e+00 6.267928815620970040e-01
1.150000000000000133e+00 6.284596856855518832e-01
1.155000000000000027e+00 6.301225896490968426e-01
1.159999999999999920e+00 6.318041651008154957e-01
1.165000000000000036e+00 6.334930589110637777e-01
1.169999999999999929e+00 6.352000878345583912e-01
1.175000000000000044e+00 6.369136268115028754e-01
1.179999999999999938e+00 6.386278849723437956e-01
1.185000000000000053e+00 6.403405994799552525e-01
1.189999999999999947e+00 6.420762549447073253e-01
1.195000000000000062e+00 6.438162730972010195e-01
1.199999999999999956e+00 6.455499133011478596e-01
1.205000000000000071e+00 6.472907453769635167e-01
1.209999999999999964e+00 6.490285883854690629e-01
1.215000000000000080e+00 6.507872164154823169e-01
1.219999999999999973e+00 6.525400758954534863e-01
1.225000000000000089e+00 6.542993430261793142e-01
1.229999999999999982e+00 6.560632008582182317e-01
1.235000000000000098e+00 6.578311436333983409e-01
1.239999999999999991e+00 6.596120256820969807e-01
1.245000000000000107e+00 6.613732694392188138e-01
1.250000000000000000e+00 6.631599559120102683e-01
1.255000000000000115e+00 6.649624710036032837e-01
1.260000000000000009e+00 6.667675648775771569e-01
1.265000000000000124e+00 6.685935634506828817e-01
1.270000000000000018e+00 6.704509216053128329e-01
1.275000000000000133e+00 6.723425407818006683e-01
1.280000000000000027e+00 6.742560986474802620e-01
1.284999999999999920e+00 6.761918733727387831e-01
1.290000000000000036e+00 6.781383243972030073e-01
1.294999999999999929e+00 6.800966592167192459e-01
1.300000000000000044e+00 6.820757880508340198e-01
1.304999999999999938e+00 6.840190089576414501e-01
1.310000000000000053e+00 6.859884883890999818e-01
1.314999999999999947e+00 6.879204980782009926e-01
1.320000000000000062e+00 6.898366426863059564e-01
1.324999999999999956e+00 6.917228288324834828e-01
1.330000000000000071e+00 6.935892513001959969e-01
1.334999999999999964e+00 6.954508880209765431e-01
1.340000000000000080e+00 6.972991296543118445e-01
1.344999999999999973e+00 6.991180677732845572e-01
1.350000000000000089e+00 7.009479378002185790e-01
1.354999999999999982e+00 7.027841333403935797e-01
1.360000000000000098e+00 7.046251436900067278e-01
1.364999999999999991e+00 7.064499326196841400e-01
1.370000000000000107e+00 7.083142903513685029e-01
1.375000000000000000e+00 7.101723212779539329e-01
1.380000000000000115e+00 7.120548765512751954e-01
1.385000000000000009e+00 7.139034742597588634e-01
1.390000000000000124e+00 7.157587008815556873e-01
1.395000000000000018e+00 7.176073797157117573e-01
1.400000000000000133e+00 7.194610017025925286e-01
1.405000000000000027e+00 7.213081756453049165e-01
1.409999999999999920e+00 7.231460111105622035e-01
1.415000000000000036e+00 7.250106392170793113e-01
1.419999999999999929e+00 7.268463769572052202e-01
1.425000000000000044e+00 7.287173589998593437e-01
1.429999999999999938e+00 7.306043408970879227e-01
1.435000000000000053e+00 7.325156428584351787e-01
1.439999999999999947e+00 7.344452698863618290e-01
1.445000000000000062e+00 7.363735987951889328e-01
1.449999999999999956e+00 7.383385103153742302e-01
1.455000000000000071e+00 7.403233495336695169e-01
1.459999999999999964e+00 7.423178818372173637e-01
1.465000000000000080e+00 7.443333455192177039e-01
1.469999999999999973e+00 7.463619639795465721e-01
1.475000000000000089e+00 7.484084780517780144e-01
1.479999999999999982e+00 7.504741340173010089e-01
1.485000000000000098e+00 7.525301105202192309e-01
1.489999999999999991e+00 7.545925177157437602e-01
1.495000000000000107e+00 7.566867240758977653e-01
1.500000000000000000e+00 7.587518681123097686e-01
1.505000000000000115e+00 7.608082592913226749e-01
1.510000000000000009e+00 7.628616144613188377e-01
1.515000000000000124e+00 7.649009138117425222e-01
1.520000000000000018e+00 7.669485607388265569e-01
1.525000000000000133e+00 7.689750107096173792e-01
1.530000000000000027e+00 7.709869355044401962e-01
1.535000000000000142e+00 7.730085608404753117e-01
1.540000000000000036e+00 7.750373819669902353e-01
1.544999999999999929e+00 7.770339248716320313e-01
1.550000000000000044e+00 7.790564014429950390e-01
1.554999999999999938e+00 7.811011754663672590e-01
1.560000000000000053e+00 7.831640720031100011e-01
1.564999999999999947e+00 7.852314145965072489e-01
1.570000000000000062e+00 7.873183552670379726e-01
1.574999999999999956e+00 7.894388188152187125e-01
1.580000000000000071e+00 7.915528257898670761e-01
1.584999999999999964e+00 7.936780695292445786e-01
1.590000000000000080e+00 7.958083350066127437e-01
1.594999999999999973e+00 7.979312522424885090e-01
1.600000000000000089e+00 8.000761697650201620e-01
1.604999999999999982e+00 8.021862750707207113e-01
1.610000000000000098e+00 8.043016035623710147e-01
1.614999999999999991e+00 8.063903071679963119e-01
1.620000000000000107e+00 8.084802608150370995e-01
1.625000000000000000e+00 8.105251000517910143e-01
1.630000000000000115e+00 8.125694915660376383e-01
1.635000000000000009e+00 8.145929999202730087e-01
1.640000000000000124e+00 8.166055200077546594e-01
1.645000000000000018e+00 8.185974744863449004e-01
1.650000000000000133e+00 8.206112987282719873e-01
1.655000000000000027e+00 8.226157624372122390e-01
1.660000000000000142e+00 8.246358945696702358e-01
1.665000000000000036e+00 8.266642283997981400e-01
1.669999999999999929e+00 8.287078837216932392e-01
1.675000000000000044e+00 8.308002301920467403e-01
1.679999999999999938e+00 8.329206893515247456e-01
1.685000000000000053e+00 8.350576879318748480e-01
1.689999999999999947e+00 8.372119190814765188e-01
1.695000000000000062e+00 8.393876457634008581e-01
1.699999999999999956e+00 8.415713454031785723e-01
1.705000000000000071e+00 8.437436468067005535e-01
1.709999999999999964e+00 8.459134898879518971e-01
1.715000000000000080e+00 8.480519638600777510e-01
1.719999999999999973e+00 8.501953921778855339e-01
1.725000000000000089e+00 8.522948172898145991e-01
1.729999999999999982e+00 8.544066949422811641e-01
1.735000000000000098e+00 8.565036941807792070e-01
1.739999999999999991e+00 8.585755975938552664e-01
1.745000000000000107e+00 8.606499389312137760e-01
1.750000000000000000e+00 8.627339065671947305e-01
1.755000000000000115e+00 8.648158914905419437e-01
1.760000000000000009e+00 8.668944567997044492e-01
1.765000000000000124e+00 8.689705363661751614e-01
1.770000000000000018e+00 8.710395409682106793e-01
1.775000000000000133e+00 8.731245551758058943e-01
1.780000000000000027e+00 8.751973457023547454e-01
1.785000000000000142e+00 8.772575689855054426e-01
1.790000000000000036e+00 8.793091658439259328e-01
1.794999999999999929e+00 8.813864425618241905e-01
1.800000000000000044e+00 8.834440504171382491e-01
1.804999999999999938e+00 8.855046702475686260e-01
1.810000000000000053e+00 8.875846620411365073e-01
1.814999999999999947e+00 8.896726926524385348e-01
1.820000000000000062e+00 8.917753655450946226e-01
1.824999999999999956e+00 8.938993038553021409e-01
1.830000000000000071e+00 8.960283836743915264e-01
1.834999999999999964e+00 8.981809383948693437e-01
1.840000000000000080e+00 9.003689224716815431e-01
1.844999999999999973e+00 9.025439762108043995e-01
1.850000000000000089e+00 9.047548864212119346e-01
1.854999999999999982e+00 9.069766856372410979e-01
1.860000000000000098e+00 9.092221357255221292e-01
1.864999999999999991e+00 9.114712366724883053e-01
1.870000000000000107e+00 9.137419631933217934e-01
1.875000000000000000e+00 9.160084170220578192e-01
1.880000000000000115e+00 9.182883582837103598e-01
1.885000000000000009e+00 9.205696485986581967e-01
1.890000000000000124e+00 9.228638705287171007e-01
1.895000000000000018e+00 9.251416566930306118e-01
1.900000000000000133e+00 9.274285433213583785e-01
1.905000000000000027e+00 9.296964178596049955e-01
1.910000000000000142e+00 9.319693947894919228e-01
1.915000000000000036e+00 9.342344191648574991e-01
1.919999999999999929e+00 9.365003714546338287e-01
1.925000000000000044e+00 9.387427663687745172e-01
1.929999999999999938e+00 9.410195824669432829e-01
1.935000000000000053e+00 9.432978716391448026e-01
1.939999999999999947e+00 9.455847526578846640e-01
1.945000000000000062e+00 9.478855754672904643e-01
1.949999999999999956e+00 9.502129754533122918e-01
1.955000000000000071e+00 9.525439226949780069e-01
1.959999999999999964e+00 9.548914125945899833e-01
1.965000000000000080e+00 9.572270492134483666e-01
1.969999999999999973e+00 9.595640305641252032e-01
1.975000000000000089e+00 9.619039314581074862e-01
1.979999999999999982e+00 9.642419271740972908e-01
1.985000000000000098e+00 9.665731930056024046e-01
1.989999999999999991e+00 9.689167818889572459e-01
