# time (ps)	msd (pm2)
0.000000000000000000e+00 2.650841052220798133e-06
5.000000000000000104e-03 2.675385746958184284e-03
1.000000000000000021e-02 1.034152077255268143e-02
1.499999999999999944e-02 2.212794828029036182e-02
2.000000000000000042e-02 3.664369852057639682e-02
2.500000000000000139e-02 5.247615192227605974e-02
2.999999999999999889e-02 6.831685650140513488e-02
3.500000000000000333e-02 8.309541792980117136e-02
4.000000000000000083e-02 9.613339699995378240e-02
4.499999999999999833e-02 1.071851848652422834e-01
5.000000000000000278e-02 1.162982481896866482e-01
5.500000000000000028e-02 1.238648662881885187e-01
5.999999999999999778e-02 1.303156684037171942e-01
6.500000000000000222e-02 1.361358697826759723e-01
7.000000000000000666e-02 1.417940738473736917e-01
7.499999999999999722e-02 1.475450409570632504e-01
8.000000000000000167e-02 1.536074225516722846e-01
8.500000000000000611e-02 1.600346479369082753e-01
8.999999999999999667e-02 1.668421909265586645e-01
9.500000000000000111e-02 1.738468789609890208e-01
1.000000000000000056e-01 1.808884304850254809e-01
1.049999999999999961e-01 1.878428765749245166e-01
1.100000000000000006e-01 1.946447083424031610e-01
1.150000000000000050e-01 2.011403772734125517e-01
1.199999999999999956e-01 2.072961503649506931e-01
1.250000000000000000e-01 2.131188627186622053e-01
1.300000000000000044e-01 2.186678821154681152e-01
1.350000000000000089e-01 2.239809873697595766e-01
1.400000000000000133e-01 2.290788277106777793e-01
1.449999999999999900e-01 2.340108991512169223e-01
1.499999999999999944e-01 2.388680191093922600e-01
1.549999999999999989e-01 2.435770986739460020e-01
1.600000000000000033e-01 2.482256753041415243e-01
1.650000000000000078e-01 2.527285022226738453e-01
1.700000000000000122e-01 2.570921823950086393e-01
1.750000000000000167e-01 2.612771951812107307e-01
1.799999999999999933e-01 2.652383334999841580e-01
1.849999999999999978e-01 2.689714463328670702e-01
1.900000000000000022e-01 2.724702304066822789e-01
1.950000000000000067e-01 2.757735321990873456e-01
2.000000000000000111e-01 2.789098228425923032e-01
2.050000000000000155e-01 2.818986805138431473e-01
2.099999999999999922e-01 2.848280552299270463e-01
2.149999999999999967e-01 2.877888220263235541e-01
2.200000000000000011e-01 2.907888112106448708e-01
2.250000000000000056e-01 2.938528964757214368e-01
2.300000000000000100e-01 2.969987776601242802e-01
2.350000000000000144e-01 3.002607262793670073e-01
2.399999999999999911e-01 3.035570429056198560e-01
2.449999999999999956e-01 3.069377815251208008e-01
2.500000000000000000e-01 3.103076228061444897e-01
2.550000000000000044e-01 3.136719109225908353e-01
2.600000000000000089e-01 3.169752485439761847e-01
2.650000000000000133e-01 3.202234446939142831e-01
2.700000000000000178e-01 3.234052396558713682e-01
2.750000000000000222e-01 3.265127519286433744e-01
2.800000000000000266e-01 3.295652013567303973e-01
2.850000000000000311e-01 3.325145041032103732e-01
2.899999999999999800e-01 3.354250403553177828e-01
2.949999999999999845e-01 3.382615376467668078e-01
2.999999999999999889e-01 3.410659787348307992e-01
3.049999999999999933e-01 3.438341496924623986e-01
3.099999999999999978e-01 3.465510380642137789e-01
3.150000000000000022e-01 3.492887737227390321e-01
3.200000000000000067e-01 3.520288991002147871e-01
3.250000000000000111e-01 3.547370075415703372e-01
3.300000000000000155e-01 3.574816159377258162e-01
3.350000000000000200e-01 3.602889948972489709e-01
3.400000000000000244e-01 3.630939676454804643e-01
3.450000000000000289e-01 3.659423131613357971e-01
3.500000000000000333e-01 3.688174588299572010e-01
3.549999999999999822e-01 3.717263237884055882e-01
3.599999999999999867e-01 3.746149144750731685e-01
3.649999999999999911e-01 3.774791673918206358e-01
3.699999999999999956e-01 3.803069111232356692e-01
3.750000000000000000e-01 3.830906379700745878e-01
3.800000000000000044e-01 3.858218657960821307e-01
3.850000000000000089e-01 3.884766756986057223e-01
3.900000000000000133e-01 3.910706460457415989e-01
3.950000000000000178e-01 3.936332453745313709e-01
4.000000000000000222e-01 3.961963378392973079e-01
4.050000000000000266e-01 3.987160008951888823e-01
4.100000000000000311e-01 4.012658276329834628e-01
4.150000000000000355e-01 4.038360719266280707e-01
4.199999999999999845e-01 4.064366537031040005e-01
4.249999999999999889e-01 4.090555929537442736e-01
4.299999999999999933e-01 4.116725377741952130e-01
4.349999999999999978e-01 4.142656370592083803e-01
4.400000000000000022e-01 4.168186458039798703e-01
4.450000000000000067e-01 4.192634786638631539e-01
4.500000000000000111e-01 4.216696692962282889e-01
4.550000000000000155e-01 4.239668873514687020e-01
4.600000000000000200e-01 4.261776202908276190e-01
4.650000000000000244e-01 4.283142102450986366e-01
4.700000000000000289e-01 4.303962758590760274e-01
4.750000000000000333e-01 4.324505232876141303e-01
4.799999999999999822e-01 4.345195119929261551e-01
4.849999999999999867e-01 4.365777750386141687e-01
4.899999999999999911e-01 4.386394276874114873e-01
4.949999999999999956e-01 4.407273780103780902e-01
5.000000000000000000e-01 4.428347312205248576e-01
5.050000000000000044e-01 4.449488279340703123e-01
5.100000000000000089e-01 4.470673423910795918e-01
5.150000000000000133e-01 4.492297244169087822e-01
5.200000000000000178e-01 4.513509488128278901e-01
5.250000000000000222e-01 4.534685797000194141e-01
5.300000000000000266e-01 4.555945688096819657e-01
5.350000000000000311e-01 4.577126904001012075e-01
5.400000000000000355e-01 4.598125645264398154e-01
5.450000000000000400e-01 4.619054990513670189e-01
5.500000000000000444e-01 4.639963443348711358e-01
5.550000000000000488e-01 4.660807670088945587e-01
5.600000000000000533e-01 4.681560141014990961e-01
5.650000000000000577e-01 4.701671121868216119e-01
5.700000000000000622e-01 4.721755586399613014e-01
5.750000000000000666e-01 4.741628350277142800e-01
5.799999999999999600e-01 4.761044564244302224e-01
5.849999999999999645e-01 4.780422409509329507e-01
5.899999999999999689e-01 4.799652514845363926e-01
5.949999999999999734e-01 4.818616290092480048e-01
5.999999999999999778e-01 4.837494977260885509e-01
6.049999999999999822e-01 4.856376160274357145e-01
6.099999999999999867e-01 4.874975613292816812e-01
6.149999999999999911e-01 4.893659458165365850e-01
6.199999999999999956e-01 4.911903174816640849e-01
6.250000000000000000e-01 4.929865818168760461e-01
6.300000000000000044e-01 4.947898675238220356e-01
6.350000000000000089e-01 4.965682668787092524e-01
6.400000000000000133e-01 4.983139517614060265e-01
6.450000000000000178e-01 5.000769824214871262e-01
6.500000000000000222e-01 5.018674570426896464e-01
6.550000000000000266e-01 5.036731738166171368e-01
6.600000000000000311e-01 5.055882967396412297e-01
6.650000000000000355e-01 5.075158824772607602e-01
6.700000000000000400e-01 5.095224303152393608e-01
6.750000000000000444e-01 5.115931996484539557e-01
6.800000000000000488e-01 5.137539184892812028e-01
6.850000000000000533e-01 5.159073087137326930e-01
6.900000000000000577e-01 5.181094432446996523e-01
6.950000000000000622e-01 5.203036140962157274e-01
7.000000000000000666e-01 5.225065683493608226e-01
7.049999999999999600e-01 5.246617512225758562e-01
7.099999999999999645e-01 5.268042889705849552e-01
7.149999999999999689e-01 5.289179630953350086e-01
7.199999999999999734e-01 5.310200954547729113e-01
7.249999999999999778e-01 5.330961026864132757e-01
7.299999999999999822e-01 5.351840886493716143e-01
7.349999999999999867e-01 5.372642641442723077e-01
7.399999999999999911e-01 5.393871899599250730e-01
7.449999999999999956e-01 5.415031504553925457e-01
7.500000000000000000e-01 5.436645993958413303e-01
7.550000000000000044e-01 5.458537368906850595e-01
7.600000000000000089e-01 5.480562939168570624e-01
7.650000000000000133e-01 5.502722823883754444e-01
7.700000000000000178e-01 5.525096506330841040e-01
7.750000000000000222e-01 5.547199686486310455e-01
7.800000000000000266e-01 5.569190681704321300e-01
7.850000000000000311e-01 5.590875873696991016e-01
7.900000000000000355e-01 5.612516539856191589e-01
7.950000000000000400e-01 5.633635795999332174e-01
8.000000000000000444e-01 5.655069681459350406e-01
8.050000000000000488e-01 5.676014489707662536e-01
8.100000000000000533e-01 5.697534041604981336e-01
8.150000000000000577e-01 5.718685355775461332e-01
8.200000000000000622e-01 5.740308269152235576e-01
8.250000000000000666e-01 5.761795696314971904e-01
8.300000000000000711e-01 5.784021289923875209e-01
8.349999999999999645e-01 5.806501825585599352e-01
8.399999999999999689e-01 5.829037527508553751e-01
8.449999999999999734e-01 5.851556261122247138e-01
8.499999999999999778e-01 5.874231424548177483e-01
8.549999999999999822e-01 5.896840469152112574e-01
8.599999999999999867e-01 5.919696860633193447e-01
8.649999999999999911e-01 5.941909118576128579e-01
8.699999999999999956e-01 5.964007875898224009e-01
8.750000000000000000e-01 5.985968996190503821e-01
8.800000000000000044e-01 6.007801585773452357e-01
8.850000000000000089e-01 6.029069204777062208e-01
8.900000000000000133e-01 6.050621810338314699e-01
8.950000000000000178e-01 6.071463175510196653e-01
9.000000000000000222e-01 6.092583838299863164e-01
9.050000000000000266e-01 6.113362550822600827e-01
9.100000000000000311e-01 6.134093195458513170e-01
9.150000000000000355e-01 6.154957559837364034e-01
9.200000000000000400e-01 6.175884403741497275e-01
9.250000000000000444e-01 6.196827701813734102e-01
9.300000000000000488e-01 6.217941824911870086e-01
9.350000000000000533e-01 6.239238822921802097e-01
9.400000000000000577e-01 6.260464037936531723e-01
9.450000000000000622e-01 6.281558443192321040e-01
9.500000000000000666e-01 6.302923035350520564e-01
9.550000000000000711e-01 6.324245934042770356e-01
9.599999999999999645e-01 6.345309039895461467e-01
9.649999999999999689e-01 6.366129498359954786e-01
9.699999999999999734e-01 6.386780583957711865e-01
9.749999999999999778e-01 6.407388422588026211e-01
9.799999999999999822e-01 6.427747940271939520e-01
9.849999999999999867e-01 6.447924361999797238e-01
9.899999999999999911e-01 6.468167392241506164e-01
9.949999999999999956e-01 6.488555019921011802e-01
1.000000000000000000e+00 6.509234176057964172e-01
1.005000000000000115e+00 6.529957243574401327e-01
1.010000000000000009e+00 6.551017233389708760e-01
1.015000000000000124e+00 6.572520476407629486e-01
1.020000000000000018e+00 6.594243811816898893e-01
1.024999999999999911e+00 6.616542222440521259e-01
1.030000000000000027e+00 6.638494902419217469e-01
1.034999999999999920e+00 6.661145501852099304e-01
1.040000000000000036e+00 6.683905438909014673e-01
1.044999999999999929e+00 6.706096475806689883e-01
1.050000000000000044e+00 6.728892248506003204e-01
1.054999999999999938e+00 6.751465899386097647e-01
1.060000000000000053e+00 6.774206903317302464e-01
1.064999999999999947e+00 6.796877819615917415e-01
1.070000000000000062e+00 6.819634003106466169e-01
1.074999999999999956e+00 6.842617773595112141e-01
1.080000000000000071e+00 6.865428952576037025e-01
1.084999999999999964e+00 6.887998290269014001e-01
1.090000000000000080e+00 6.910666396508656772e-01
1.094999999999999973e+00 6.933135597098766256e-01
1.100000000000000089e+00 6.955147550935601997e-01
1.104999999999999982e+00 6.976902200387923303e-01
1.110000000000000098e+00 6.998293065390328582e-01
1.114999999999999991e+00 7.019490044709931764e-01
1.120000000000000107e+00 7.040705872561329182e-01
1.125000000000000000e+00 7.061760985907542532e-01
1.130000000000000115e+00 7.083433442430528970e-01
1.135000000000000009e+00 7.105201843663732086e-01
1.140000000000000124e+00 7.127288109967905294e-01
1.145000000000000018e+00 7.149469806794543913e-01
1.150000000000000133e+00 7.172483885811562487e-01
1.155000000000000027e+00 7.195118558950517329e-01
1.159999999999999920e+00 7.218370455162275157e-01
1.165000000000000036e+00 7.241605518197524738e-01
1.169999999999999929e+00 7.264801049686404610e-01
1.175000000000000044e+00 7.287988102420662750e-01
1.179999999999999938e+00 7.311105049050149463e-01
1.185000000000000053e+00 7.334075175733986152e-01
1.189999999999999947e+00 7.357213365294843488e-01
1.195000000000000062e+00 7.380567434568893193e-01
1.199999999999999956e+00 7.403849853834608696e-01
1.205000000000000071e+00 7.427435594170432864e-01
1.209999999999999964e+00 7.451333215691857692e-01
1.215000000000000080e+00 7.475543031883290501e-01
1.219999999999999973e+00 7.500088582585947572e-01
1.225000000000000089e+00 7.524368508457093263e-01
1.229999999999999982e+00 7.549190804738504790e-01
1.235000000000000098e+00 7.573677930210119813e-01
1.239999999999999991e+00 7.598579502207456482e-01
1.245000000000000107e+00 7.623040632153208485e-01
1.250000000000000000e+00 7.647313976395135882e-01
1.255000000000000115e+00 7.671906166596171861e-01
1.260000000000000009e+00 7.696171670144560384e-01
1.265000000000000124e+00 7.720724383094941246e-01
1.270000000000000018e+00 7.745157275545621056e-01
1.275000000000000133e+00 7.770118809535431215e-01
1.280000000000000027e+00 7.795183608751378168e-01
1.284999999999999920e+00 7.820566299159512624e-01
1.290000000000000036e+00 7.846203421713092707e-01
1.294999999999999929e+00 7.871824546616205120e-01
1.300000000000000044e+00 7.897649520015913582e-01
1.304999999999999938e+00 7.922883667781908112e-01
1.310000000000000053e+00 7.948359842559402644e-01
1.314999999999999947e+00 7.973297538788072236e-01
1.320000000000000062e+00 7.998058555232476774e-01
1.324999999999999956e+00 8.022675270304350237e-01
1.330000000000000071e+00 8.046773168175628266e-01
1.334999999999999964e+00 8.070815100921354679e-01
1.340000000000000080e+00 8.095219367376819131e-01
1.344999999999999973e+00 8.119073634578795051e-01
1.350000000000000089e+00 8.143335407502163559e-01
1.354999999999999982e+00 8.167771395558394154e-01
1.360000000000000098e+00 8.192348788682033423e-01
1.364999999999999991e+00 8.216613218043480327e-01
1.370000000000000107e+00 8.241416806207296775e-01
1.375000000000000000e+00 8.266156539137407000e-01
1.380000000000000115e+00 8.291046974381155454e-01
1.385000000000000009e+00 8.315637804258683152e-01
1.390000000000000124e+00 8.340257838659576040e-01
1.395000000000000018e+00 8.364768534121177490e-01
1.400000000000000133e+00 8.389715825136352390e-01
1.405000000000000027e+00 8.414438976699476491e-01
1.409999999999999920e+00 8.439436926930174998e-01
1.415000000000000036e+00 8.464854876455069066e-01
1.419999999999999929e+00 8.490075988154167641e-01
1.425000000000000044e+00 8.515581216120865493e-01
1.429999999999999938e+00 8.541305724710904768e-01
1.435000000000000053e+00 8.567290999251745420e-01
1.439999999999999947e+00 8.593209827093689634e-01
1.445000000000000062e+00 8.618968067619895423e-01
1.449999999999999956e+00 8.644925532858069861e-01
1.455000000000000071e+00 8.670917675672292768e-01
1.459999999999999964e+00 8.696840309150950521e-01
1.465000000000000080e+00 8.722710278729922662e-01
1.469999999999999973e+00 8.748709147197561986e-01
1.475000000000000089e+00 8.774991021293001570e-01
1.479999999999999982e+00 8.801511359953297919e-01
1.485000000000000098e+00 8.828026889667304200e-01
1.489999999999999991e+00 8.854721558841149864e-01
1.495000000000000107e+00 8.881887237828132164e-01
1.500000000000000000e+00 8.908687219163494708e-01
1.505000000000000115e+00 8.935844289159238230e-01
1.510000000000000009e+00 8.962894664585743243e-01
1.515000000000000124e+00 8.989906480304130643e-01
1.520000000000000018e+00 9.017054522603364930e-01
1.525000000000000133e+00 9.043653195664441702e-01
1.530000000000000027e+00 9.070493964847501367e-01
1.535000000000000142e+00 9.096856064286248378e-01
1.540000000000000036e+00 9.123369231465375817e-01
1.544999999999999929e+00 9.149401870652887903e-01
1.550000000000000044e+00 9.175805909171466102e-01
1.554999999999999938e+00 9.202366758859579221e-01
1.560000000000000053e+00 9.228906515105143038e-01
1.564999999999999947e+00 9.255588691605250995e-01
1.570000000000000062e+00 9.282657749855692808e-01
1.574999999999999956e+00 9.309911159064111486e-01
1.580000000000000071e+00 9.337045150317262454e-01
1.584999999999999964e+00 9.364219986061739220e-01
1.590000000000000080e+00 9.391448637880550621e-01
1.594999999999999973e+00 9.418863502060333959e-01
1.600000000000000089e+00 9.446248282851994471e-01
1.604999999999999982e+00 9.473494086257262525e-01
1.610000000000000098e+00 9.501080523132492406e-01
1.614999999999999991e+00 9.528334178852380099e-01
1.620000000000000107e+00 9.555942713185657800e-01
1.625000000000000000e+00 9.583331967803584428e-01
1.630000000000000115e+00 9.610789357870630489e-01
1.635000000000000009e+00 9.638122333064593761e-01
1.640000000000000124e+00 9.665200677916772065e-01
1.645000000000000018e+00 9.691678647739926378e-01
1.650000000000000133e+00 9.718477354847074867e-01
1.655000000000000027e+00 9.745166843678357838e-01
1.660000000000000142e+00 9.771478292349274897e-01
1.665000000000000036e+00 9.797703007369160666e-01
1.669999999999999929e+00 9.824061517663981169e-01
1.675000000000000044e+00 9.850537352231517607e-01
1.679999999999999938e+00 9.877072713527603742e-01
1.685000000000000053e+00 9.903626282640021206e-01
1.689999999999999947e+00 9.930133692633288378e-01
1.695000000000000062e+00 9.957149971034288116e-01
1.699999999999999956e+00 9.984170979828590475e-01
1.705000000000000071e+00 1.001120343521319844e+00
1.709999999999999964e+00 1.003854536827423871e+00
1.715000000000000080e+00 1.006595610211211911e+00
1.719999999999999973e+00 1.009389244210534997e+00
1.725000000000000089e+00 1.012183658329330216e+00
1.729999999999999982e+00 1.015015099282649214e+00
1.735000000000000098e+00 1.017879793605836358e+00
1.739999999999999991e+00 1.020731403417683980e+00
1.745000000000000107e+00 1.023589175702881660e+00
1.750000000000000000e+00 1.026446779102501150e+00
1.755000000000000115e+00 1.029288084659735203e+00
1.760000000000000009e+00 1.032130819235531849e+00
1.765000000000000124e+00 1.034901684233892505e+00
1.770000000000000018e+00 1.037667842587105316e+00
1.775000000000000133e+00 1.040458832832516389e+00
1.780000000000000027e+00 1.043169172747596463e+00
1.785000000000000142e+00 1.045876442009078922e+00
1.790000000000000036e+00 1.048583447801658242e+00
1.794999999999999929e+00 1.051321588588515432e+00
1.800000000000000044e+00 1.054046164158484178e+00
1.804999999999999938e+00 1.056773083863927543e+00
1.810000000000000053e+00 1.059554342926421144e+00
1.814999999999999947e+00 1.062369560969272486e+00
1.820000000000000062e+00 1.065205429766758805e+00
1.824999999999999956e+00 1.068084416756511557e+00
1.830000000000000071e+00 1.071014716760108731e+00
1.834999999999999964e+00 1.073969341765831587e+00
1.840000000000000080e+00 1.076993900344091148e+00
1.844999999999999973e+00 1.080014764590751186e+00
1.850000000000000089e+00 1.083077811218629227e+00
1.854999999999999982e+00 1.086204169889545934e+00
1.860000000000000098e+00 1.089349943325758074e+00
1.864999999999999991e+00 1.092492259693913725e+00
1.870000000000000107e+00 1.095707161474236191e+00
1.875000000000000000e+00 1.098892028693506440e+00
1.880000000000000115e+00 1.102100225353921825e+00
1.885000000000000009e+00 1.105338626241932687e+00
1.890000000000000124e+00 1.108580388331688482e+00
1.895000000000000018e+00 1.111793055513918382e+00
1.900000000000000133e+00 1.115009331056208364e+00
1.905000000000000027e+00 1.118197079303101971e+00
1.910000000000000142e+00 1.121366111607967619e+00
1.915000000000000036e+00 1.124574022954979657e+00
1.919999999999999929e+00 1.127723176730383914e+00
1.925000000000000044e+00 1.130865942728303208e+00
1.929999999999999938e+00 1.134027083392453061e+00
1.935000000000000053e+00 1.137210799404945405e+00
1.939999999999999947e+00 1.140367632508077822e+00
1.945000000000000062e+00 1.143512750686640267e+00
1.949999999999999956e+00 1.146702303716647720e+00
1.955000000000000071e+00 1.149876749068508452e+00
1.959999999999999964e+00 1.153063838646235961e+00
1.965000000000000080e+00 1.156222210003593931e+00
1.969999999999999973e+00 1.159396089827875453e+00
1.975000000000000089e+00 1.162556008211716119e+00
1.979999999999999982e+00 1.165712277412046305e+00
1.985000000000000098e+00 1.168873312864899816e+00
1.989999999999999991e+00 1.172021846778934284e+00
