# time (ps)	msd (A2)
0.000000000000000000e+00 6.742521537967046145e-04
1.000000000000000000e+00 9.260539302613173263e-01
2.000000000000000000e+00 1.346824654606210592e+00
3.000000000000000000e+00 1.720649946924939444e+00
4.000000000000000000e+00 2.072082270825482020e+00
5.000000000000000000e+00 2.405183607062463036e+00
6.000000000000000000e+00 2.725048047780043614e+00
7.000000000000000000e+00 3.035413336882244462e+00
8.000000000000000000e+00 3.337605818519861156e+00
9.000000000000000000e+00 3.631207839423639339e+00
1.000000000000000000e+01 3.923192507403796103e+00
1.100000000000000000e+01 4.209184965269006540e+00
1.200000000000000000e+01 4.491055915434157164e+00
1.300000000000000000e+01 4.767166377566999458e+00
1.400000000000000000e+01 5.041508257650401781e+00
1.500000000000000000e+01 5.316642070580336998e+00
1.600000000000000000e+01 5.584181087204091121e+00
1.700000000000000000e+01 5.852724878849778101e+00
1.800000000000000000e+01 6.116212240229866204e+00
1.900000000000000000e+01 6.376709294427705288e+00
2.000000000000000000e+01 6.634492725955275283e+00
2.100000000000000000e+01 6.887520022555174926e+00
2.200000000000000000e+01 7.142782756206004002e+00
2.300000000000000000e+01 7.396195949943762393e+00
2.400000000000000000e+01 7.647252404510087587e+00
2.500000000000000000e+01 7.898645134282567426e+00
2.600000000000000000e+01 8.147116388759000571e+00
2.700000000000000000e+01 8.396400262026716632e+00
2.800000000000000000e+01 8.644309064341628712e+00
2.900000000000000000e+01 8.895008287641209321e+00
3.000000000000000000e+01 9.140784889393778201e+00
3.100000000000000000e+01 9.386639335623748082e+00
3.200000000000000000e+01 9.633400599176162871e+00
3.300000000000000000e+01 9.877033402820392993e+00
3.400000000000000000e+01 1.012161089941162295e+01
3.500000000000000000e+01 1.036556627594064572e+01
3.600000000000000000e+01 1.060857694924836281e+01
3.700000000000000000e+01 1.085412236338651404e+01
3.800000000000000000e+01 1.109605762813474961e+01
3.900000000000000000e+01 1.133646058594960415e+01
4.000000000000000000e+01 1.157665362451152724e+01
4.100000000000000000e+01 1.181671794844044854e+01
4.200000000000000000e+01 1.205782293846582398e+01
4.300000000000000000e+01 1.229463069006794207e+01
4.400000000000000000e+01 1.253204204789025766e+01
4.500000000000000000e+01 1.277063343084283353e+01
4.600000000000000000e+01 1.300502271856065839e+01
4.700000000000000000e+01 1.324295577531845680e+01
4.800000000000000000e+01 1.348026511193563159e+01
4.900000000000000000e+01 1.371551835257421637e+01
5.000000000000000000e+01 1.395487832825025443e+01
5.100000000000000000e+01 1.419151803927924504e+01
5.200000000000000000e+01 1.442571815297074700e+01
5.300000000000000000e+01 1.466068075476213828e+01
5.400000000000000000e+01 1.489648407288708221e+01
5.500000000000000000e+01 1.513125686975412343e+01
5.600000000000000000e+01 1.536652078111100117e+01
5.700000000000000000e+01 1.560338640197710269e+01
5.800000000000000000e+01 1.583702573251404466e+01
5.900000000000000000e+01 1.607144014629428241e+01
6.000000000000000000e+01 1.630642892282941148e+01
6.100000000000000000e+01 1.654290590273027917e+01
6.200000000000000000e+01 1.677604510222848333e+01
6.300000000000000000e+01 1.700759456903954359e+01
6.400000000000000000e+01 1.723612888139114219e+01
6.500000000000000000e+01 1.746738136489671334e+01
6.600000000000000000e+01 1.770079636517809973e+01
6.700000000000000000e+01 1.793053679414273560e+01
6.800000000000000000e+01 1.816075103143981551e+01
6.900000000000000000e+01 1.839511234968183828e+01
7.000000000000000000e+01 1.862997102786853887e+01
7.100000000000000000e+01 1.886265920129752871e+01
7.200000000000000000e+01 1.909621707735366769e+01
7.300000000000000000e+01 1.933448850340470671e+01
7.400000000000000000e+01 1.956973430858861462e+01
7.500000000000000000e+01 1.980463639084684502e+01
7.600000000000000000e+01 2.003526941268554751e+01
7.700000000000000000e+01 2.027010060907423394e+01
7.800000000000000000e+01 2.049928712342547499e+01
7.900000000000000000e+01 2.073014451096767274e+01
8.000000000000000000e+01 2.096142456052161052e+01
8.100000000000000000e+01 2.119204887825165429e+01
8.200000000000000000e+01 2.142265298920831640e+01
8.300000000000000000e+01 2.165284433123249741e+01
8.400000000000000000e+01 2.188485213729488166e+01
8.500000000000000000e+01 2.212062276125368143e+01
8.600000000000000000e+01 2.235316954706569348e+01
8.700000000000000000e+01 2.258564241226157421e+01
8.800000000000000000e+01 2.282001732181675990e+01
8.900000000000000000e+01 2.305425634761795095e+01
9.000000000000000000e+01 2.328667001198460085e+01
9.100000000000000000e+01 2.352053615162942890e+01
9.200000000000000000e+01 2.375141256746523766e+01
9.300000000000000000e+01 2.398064577051038171e+01
9.400000000000000000e+01 2.421117014143520763e+01
9.500000000000000000e+01 2.444237224238868933e+01
9.600000000000000000e+01 2.467142174408627397e+01
9.700000000000000000e+01 2.490155825566212400e+01
9.800000000000000000e+01 2.512900663745845975e+01
9.900000000000000000e+01 2.535948879709573589e+01
1.000000000000000000e+02 2.558987458913811608e+01
1.010000000000000000e+02 2.582102092978140107e+01
1.020000000000000000e+02 2.604969142281217032e+01
1.030000000000000000e+02 2.627707870040352489e+01
1.040000000000000000e+02 2.650500255316994114e+01
1.050000000000000000e+02 2.673243059982635828e+01
1.060000000000000000e+02 2.695759022754930356e+01
1.070000000000000000e+02 2.718275905904239309e+01
1.080000000000000000e+02 2.740752284483498258e+01
1.090000000000000000e+02 2.763244092454577228e+01
1.100000000000000000e+02 2.785931676992324313e+01
1.110000000000000000e+02 2.808588108702949171e+01
1.120000000000000000e+02 2.831167626857071085e+01
1.130000000000000000e+02 2.853641367547047381e+01
1.140000000000000000e+02 2.875907577657475045e+01
1.150000000000000000e+02 2.898365900223523184e+01
1.160000000000000000e+02 2.920922705386635698e+01
1.170000000000000000e+02 2.943572245924281106e+01
1.180000000000000000e+02 2.966014105477690421e+01
1.190000000000000000e+02 2.988541169238670037e+01
1.200000000000000000e+02 3.010728402488585687e+01
1.210000000000000000e+02 3.033073162727527361e+01
1.220000000000000000e+02 3.055632120417747544e+01
1.230000000000000000e+02 3.077941779236900643e+01
1.240000000000000000e+02 3.100487083701983693e+01
1.250000000000000000e+02 3.122938226757992197e+01
1.260000000000000000e+02 3.145673030491822075e+01
1.270000000000000000e+02 3.167932772734684477e+01
1.280000000000000000e+02 3.190388913014858829e+01
1.290000000000000000e+02 3.212954171357709043e+01
1.300000000000000000e+02 3.235518673976110904e+01
1.310000000000000000e+02 3.258162234572369442e+01
1.320000000000000000e+02 3.280800569094595431e+01
1.330000000000000000e+02 3.303543637789835685e+01
1.340000000000000000e+02 3.326041341625471404e+01
1.350000000000000000e+02 3.348546600316532107e+01
1.360000000000000000e+02 3.371049183259052029e+01
1.370000000000000000e+02 3.393519740409496421e+01
1.380000000000000000e+02 3.416224410966119507e+01
1.390000000000000000e+02 3.438602193101326066e+01
1.400000000000000000e+02 3.461020854895679122e+01
1.410000000000000000e+02 3.483448824057212079e+01
1.420000000000000000e+02 3.505948626480708441e+01
1.430000000000000000e+02 3.528740605826678944e+01
1.440000000000000000e+02 3.551339839853041980e+01
1.450000000000000000e+02 3.574028783409639942e+01
1.460000000000000000e+02 3.596926526121574597e+01
1.470000000000000000e+02 3.619729698719481092e+01
1.480000000000000000e+02 3.642138369411905074e+01
1.490000000000000000e+02 3.664717644330182367e+01
1.500000000000000000e+02 3.687005652408228684e+01
1.510000000000000000e+02 3.709470578975009403e+01
1.520000000000000000e+02 3.732513013182285277e+01
1.530000000000000000e+02 3.754893055017383574e+01
1.540000000000000000e+02 3.777616557687915133e+01
1.550000000000000000e+02 3.800280233727827550e+01
1.560000000000000000e+02 3.823004412635228988e+01
1.570000000000000000e+02 3.845602428296763975e+01
1.580000000000000000e+02 3.868077167129015947e+01
1.590000000000000000e+02 3.890649486394766399e+01
1.600000000000000000e+02 3.913496140475021434e+01
1.610000000000000000e+02 3.935944883623335500e+01
1.620000000000000000e+02 3.958282443971770448e+01
1.630000000000000000e+02 3.980579303467279573e+01
1.640000000000000000e+02 4.003083993765778814e+01
1.650000000000000000e+02 4.025500040984810113e+01
1.660000000000000000e+02 4.048161370488809752e+01
1.670000000000000000e+02 4.070703610003881323e+01
1.680000000000000000e+02 4.093229099827556894e+01
1.690000000000000000e+02 4.115994863088028666e+01
1.700000000000000000e+02 4.138333753743294352e+01
1.710000000000000000e+02 4.160870776031742224e+01
1.720000000000000000e+02 4.183389820203697695e+01
1.730000000000000000e+02 4.206216364119649853e+01
1.740000000000000000e+02 4.229453395757462886e+01
1.750000000000000000e+02 4.252242767310001170e+01
1.760000000000000000e+02 4.274921561851125063e+01
1.770000000000000000e+02 4.297331939981228288e+01
1.780000000000000000e+02 4.319836110324512646e+01
1.790000000000000000e+02 4.342184949038142605e+01
1.800000000000000000e+02 4.364570327909255099e+01
1.810000000000000000e+02 4.387154322632150638e+01
1.820000000000000000e+02 4.409712557907783292e+01
1.830000000000000000e+02 4.431927195848329148e+01
1.840000000000000000e+02 4.454247644177302590e+01
1.850000000000000000e+02 4.476355086204176814e+01
1.860000000000000000e+02 4.498356273307194186e+01
1.870000000000000000e+02 4.520704264713619835e+01
1.880000000000000000e+02 4.542860057622439030e+01
1.890000000000000000e+02 4.565190076900312732e+01
1.900000000000000000e+02 4.587392339122565232e+01
1.910000000000000000e+02 4.609719873549991576e+01
1.920000000000000000e+02 4.632027696021599894e+01
1.930000000000000000e+02 4.654576015553012525e+01
1.940000000000000000e+02 4.677166883983627343e+01
1.950000000000000000e+02 4.699793247476124947e+01
1.960000000000000000e+02 4.722322024159014831e+01
1.970000000000000000e+02 4.744955548070297624e+01
1.980000000000000000e+02 4.767560735044414599e+01
1.990000000000000000e+02 4.789934338029803484e+01
2.000000000000000000e+02 4.812418335575009820e+01
2.010000000000000000e+02 4.834696384088203303e+01
2.020000000000000000e+02 4.857301604437108011e+01
2.030000000000000000e+02 4.879798954727495897e+01
2.040000000000000000e+02 4.902251883980023450e+01
2.050000000000000000e+02 4.925081597824800639e+01
2.060000000000000000e+02 4.947663374513394530e+01
2.070000000000000000e+02 4.970323201333182084e+01
2.080000000000000000e+02 4.992984433964111446e+01
2.090000000000000000e+02 5.015579562253686419e+01
2.100000000000000000e+02 5.038357360176474486e+01
2.110000000000000000e+02 5.061076202476658636e+01
2.120000000000000000e+02 5.083594653270210983e+01
2.130000000000000000e+02 5.106417337088404196e+01
2.140000000000000000e+02 5.129424438664762675e+01
2.150000000000000000e+02 5.152537710865720300e+01
2.160000000000000000e+02 5.175691026454308030e+01
2.170000000000000000e+02 5.198321954206020479e+01
2.180000000000000000e+02 5.220927894459079965e+01
2.190000000000000000e+02 5.243932163445095540e+01
2.200000000000000000e+02 5.266362131661181678e+01
2.210000000000000000e+02 5.289188366107367756e+01
2.220000000000000000e+02 5.311805739877662091e+01
2.230000000000000000e+02 5.334388870028007545e+01
2.240000000000000000e+02 5.357270024787379015e+01
2.250000000000000000e+02 5.379994438641855226e+01
2.260000000000000000e+02 5.402362027013092671e+01
2.270000000000000000e+02 5.425055882677187213e+01
2.280000000000000000e+02 5.447755326101389528e+01
2.290000000000000000e+02 5.470327786655798974e+01
2.300000000000000000e+02 5.493034648909647899e+01
2.310000000000000000e+02 5.515590274256317116e+01
2.320000000000000000e+02 5.538049654275027933e+01
2.330000000000000000e+02 5.560585245156365630e+01
2.340000000000000000e+02 5.583106398811626292e+01
2.350000000000000000e+02 5.605708607136591581e+01
2.360000000000000000e+02 5.628438533645067565e+01
2.370000000000000000e+02 5.651051976684584588e+01
2.380000000000000000e+02 5.673586687449373045e+01
2.390000000000000000e+02 5.696095443728543728e+01
2.400000000000000000e+02 5.718607766513169821e+01
2.410000000000000000e+02 5.740821213087991026e+01
2.420000000000000000e+02 5.762881420859022086e+01
2.430000000000000000e+02 5.785075402430655345e+01
2.440000000000000000e+02 5.807222552787025194e+01
2.450000000000000000e+02 5.829590117821360451e+01
2.460000000000000000e+02 5.851738674952599695e+01
2.470000000000000000e+02 5.874134070393539986e+01
2.480000000000000000e+02 5.896356548704088851e+01
2.490000000000000000e+02 5.918724424853700583e+01
2.500000000000000000e+02 5.941182482818027211e+01
2.510000000000000000e+02 5.963681693189258226e+01
2.520000000000000000e+02 5.986095663761025065e+01
2.530000000000000000e+02 6.008305816321430370e+01
2.540000000000000000e+02 6.030929392704687331e+01
2.550000000000000000e+02 6.053319534787672751e+01
2.560000000000000000e+02 6.075924771559841275e+01
2.570000000000000000e+02 6.098807086133107447e+01
2.580000000000000000e+02 6.121502671479115776e+01
2.590000000000000000e+02 6.144271795928163016e+01
2.600000000000000000e+02 6.167357293482473324e+01
2.610000000000000000e+02 6.190289372859891870e+01
2.620000000000000000e+02 6.213430486552601906e+01
2.630000000000000000e+02 6.236704896777670371e+01
2.640000000000000000e+02 6.259664746308181549e+01
2.650000000000000000e+02 6.282334708715541893e+01
2.660000000000000000e+02 6.304943063907946765e+01
2.670000000000000000e+02 6.327907081380320164e+01
2.680000000000000000e+02 6.350946918844638844e+01
2.690000000000000000e+02 6.373737889832629122e+01
2.700000000000000000e+02 6.396528786638757680e+01
2.710000000000000000e+02 6.419343350416365013e+01
2.720000000000000000e+02 6.442266452570480340e+01
2.730000000000000000e+02 6.465298706811647378e+01
2.740000000000000000e+02 6.488557130227420089e+01
2.750000000000000000e+02 6.511526267465519879e+01
2.760000000000000000e+02 6.534436941261716925e+01
2.770000000000000000e+02 6.557760863995079603e+01
2.780000000000000000e+02 6.580671530092722321e+01
2.790000000000000000e+02 6.603409382617924450e+01
2.800000000000000000e+02 6.626034234822081714e+01
2.810000000000000000e+02 6.648685069589653551e+01
2.820000000000000000e+02 6.671492078317872654e+01
2.830000000000000000e+02 6.694483799879792230e+01
2.840000000000000000e+02 6.717984013325603598e+01
2.850000000000000000e+02 6.740964928238527420e+01
2.860000000000000000e+02 6.764126460974470945e+01
2.870000000000000000e+02 6.787427663074748807e+01
2.880000000000000000e+02 6.810690695353154922e+01
2.890000000000000000e+02 6.833972056688055829e+01
2.900000000000000000e+02 6.857577120706021390e+01
2.910000000000000000e+02 6.881321523061258461e+01
2.920000000000000000e+02 6.904514298019593355e+01
2.930000000000000000e+02 6.927958689659995173e+01
2.940000000000000000e+02 6.951517198998159586e+01
2.950000000000000000e+02 6.974596303233933270e+01
2.960000000000000000e+02 6.998023798086957470e+01
2.970000000000000000e+02 7.021307496974203843e+01
2.980000000000000000e+02 7.044681723495990866e+01
2.990000000000000000e+02 7.068013598785442753e+01
3.000000000000000000e+02 7.091407051939923178e+01
3.010000000000000000e+02 7.114650302500302814e+01
3.020000000000000000e+02 7.138083096817366879e+01
3.030000000000000000e+02 7.161252910372196823e+01
3.040000000000000000e+02 7.184388683160911171e+01
3.050000000000000000e+02 7.207774290540704953e+01
3.060000000000000000e+02 7.231153593063024232e+01
3.070000000000000000e+02 7.254490947529905043e+01
3.080000000000000000e+02 7.277971595832759988e+01
3.090000000000000000e+02 7.301346287013636527e+01
3.100000000000000000e+02 7.324451972572173020e+01
3.110000000000000000e+02 7.348141980288671959e+01
3.120000000000000000e+02 7.371573680053876387e+01
3.130000000000000000e+02 7.395233898408530138e+01
3.140000000000000000e+02 7.418835864840524152e+01
3.150000000000000000e+02 7.442318610817856950e+01
3.160000000000000000e+02 7.465860012857507400e+01
3.170000000000000000e+02 7.489474969498395751e+01
3.180000000000000000e+02 7.512951212176091076e+01
3.190000000000000000e+02 7.536726442449604235e+01
3.200000000000000000e+02 7.560834202583026808e+01
3.210000000000000000e+02 7.584521842187557183e+01
3.220000000000000000e+02 7.608177831479406450e+01
3.230000000000000000e+02 7.631901713802535880e+01
3.240000000000000000e+02 7.655491107620680680e+01
3.250000000000000000e+02 7.679226055133604234e+01
3.260000000000000000e+02 7.703081293938102192e+01
3.270000000000000000e+02 7.726783103982398870e+01
3.280000000000000000e+02 7.750447795554507024e+01
3.290000000000000000e+02 7.774426465081533877e+01
3.300000000000000000e+02 7.798265975866365807e+01
3.310000000000000000e+02 7.822155534686656608e+01
3.320000000000000000e+02 7.846104906593446060e+01
3.330000000000000000e+02 7.869831357445285391e+01
3.340000000000000000e+02 7.893751518471430018e+01
3.350000000000000000e+02 7.917553447458199400e+01
3.360000000000000000e+02 7.941365797936248327e+01
3.370000000000000000e+02 7.964873973984272482e+01
3.380000000000000000e+02 7.988776123833868326e+01
3.390000000000000000e+02 8.012473661739659292e+01
3.400000000000000000e+02 8.036148396272891148e+01
3.410000000000000000e+02 8.059888086851542255e+01
3.420000000000000000e+02 8.083712356051732684e+01
3.430000000000000000e+02 8.107603215113897477e+01
3.440000000000000000e+02 8.131339005267898301e+01
3.450000000000000000e+02 8.155115659482346757e+01
3.460000000000000000e+02 8.178831673321694495e+01
3.470000000000000000e+02 8.202473991450163737e+01
3.480000000000000000e+02 8.226388014235597268e+01
3.490000000000000000e+02 8.250231060375041636e+01
3.500000000000000000e+02 8.273910909962656035e+01
3.510000000000000000e+02 8.297540602902844853e+01
3.520000000000000000e+02 8.321352621732467014e+01
3.530000000000000000e+02 8.345616083878682900e+01
3.540000000000000000e+02 8.369596594745088680e+01
3.550000000000000000e+02 8.393398071059311860e+01
3.560000000000000000e+02 8.417372670597877971e+01
3.570000000000000000e+02 8.441278809217216406e+01
3.580000000000000000e+02 8.465287211035131065e+01
3.590000000000000000e+02 8.489013735615417033e+01
3.600000000000000000e+02 8.512520489253707012e+01
3.610000000000000000e+02 8.536434268020805405e+01
3.620000000000000000e+02 8.559792713143350795e+01
3.630000000000000000e+02 8.583528009185157259e+01
3.640000000000000000e+02 8.607201965427208279e+01
3.650000000000000000e+02 8.630776205924996702e+01
3.660000000000000000e+02 8.654510881385128584e+01
3.670000000000000000e+02 8.678184846389275720e+01
3.680000000000000000e+02 8.701884866496330062e+01
3.690000000000000000e+02 8.725458011393759250e+01
3.700000000000000000e+02 8.749228947508697729e+01
3.710000000000000000e+02 8.773067680712854610e+01
3.720000000000000000e+02 8.797072548741117259e+01
3.730000000000000000e+02 8.820675486978625202e+01
3.740000000000000000e+02 8.844501085539815222e+01
3.750000000000000000e+02 8.868113434483638002e+01
3.760000000000000000e+02 8.891808659632397394e+01
3.770000000000000000e+02 8.915516529414033187e+01
3.780000000000000000e+02 8.939582322975259387e+01
3.790000000000000000e+02 8.963188055371182372e+01
3.800000000000000000e+02 8.986835822576738053e+01
3.810000000000000000e+02 9.010383392843317552e+01
3.820000000000000000e+02 9.034107303653324550e+01
3.830000000000000000e+02 9.057748057817070730e+01
3.840000000000000000e+02 9.081881176584001025e+01
3.850000000000000000e+02 9.105864767222919909e+01
3.860000000000000000e+02 9.129878907786049069e+01
3.870000000000000000e+02 9.154009589958667448e+01
3.880000000000000000e+02 9.178093076000557460e+01
3.890000000000000000e+02 9.202367702780499314e+01
3.900000000000000000e+02 9.226339697104151583e+01
3.910000000000000000e+02 9.250305028253882256e+01
3.920000000000000000e+02 9.274536676041350347e+01
3.930000000000000000e+02 9.298586428221665301e+01
3.940000000000000000e+02 9.322857683288123098e+01
3.950000000000000000e+02 9.347019841453038680e+01
3.960000000000000000e+02 9.371139303088898487e+01
3.970000000000000000e+02 9.395251680650017079e+01
3.980000000000000000e+02 9.419515931484941973e+01
