# time (ps)	msd (A2)
0.000000000000000000e+00 6.476598862679726126e-04
1.000000000000000000e+00 9.286496294811589225e-01
2.000000000000000000e+00 1.349120502931883125e+00
3.000000000000000000e+00 1.726450325823815746e+00
4.000000000000000000e+00 2.078311747479463900e+00
5.000000000000000000e+00 2.410677631692120126e+00
6.000000000000000000e+00 2.732953828289493625e+00
7.000000000000000000e+00 3.048134642067293232e+00
8.000000000000000000e+00 3.354915783119963191e+00
9.000000000000000000e+00 3.652687373724994302e+00
1.000000000000000000e+01 3.950532627198943825e+00
1.100000000000000000e+01 4.235658818136260884e+00
1.200000000000000000e+01 4.520963305109614971e+00
1.300000000000000000e+01 4.797189389969964246e+00
1.400000000000000000e+01 5.070160821701739984e+00
1.500000000000000000e+01 5.344610876696818558e+00
1.600000000000000000e+01 5.609151546704379321e+00
1.700000000000000000e+01 5.873430906907656457e+00
1.800000000000000000e+01 6.136022334806464862e+00
1.900000000000000000e+01 6.394579927412260112e+00
2.000000000000000000e+01 6.648571973163691418e+00
2.100000000000000000e+01 6.898130032857228144e+00
2.200000000000000000e+01 7.149522419894313252e+00
2.300000000000000000e+01 7.396945228304698361e+00
2.400000000000000000e+01 7.645098653673383815e+00
2.500000000000000000e+01 7.890617908939627334e+00
2.600000000000000000e+01 8.134500486758915017e+00
2.700000000000000000e+01 8.374968188356969989e+00
2.800000000000000000e+01 8.613049075422861023e+00
2.900000000000000000e+01 8.853641790248138577e+00
3.000000000000000000e+01 9.090495160528567098e+00
3.100000000000000000e+01 9.327081136332274980e+00
3.200000000000000000e+01 9.560461019975441843e+00
3.300000000000000000e+01 9.795045425059198507e+00
3.400000000000000000e+01 1.002735667066296088e+01
3.500000000000000000e+01 1.025997149814154419e+01
3.600000000000000000e+01 1.048496909111425701e+01
3.700000000000000000e+01 1.071214590873376515e+01
3.800000000000000000e+01 1.093737207790443300e+01
3.900000000000000000e+01 1.116391526392712841e+01
4.000000000000000000e+01 1.139186487873099196e+01
4.100000000000000000e+01 1.161518924626675897e+01
4.200000000000000000e+01 1.183733100829484108e+01
4.300000000000000000e+01 1.205645860538420600e+01
4.400000000000000000e+01 1.227610243122349054e+01
4.500000000000000000e+01 1.249713710939203537e+01
4.600000000000000000e+01 1.271624408070588963e+01
4.700000000000000000e+01 1.293678090898902333e+01
4.800000000000000000e+01 1.315426773914215630e+01
4.900000000000000000e+01 1.336955262214605789e+01
5.000000000000000000e+01 1.358973084043747726e+01
5.100000000000000000e+01 1.380957728313063626e+01
5.200000000000000000e+01 1.402961728192364177e+01
5.300000000000000000e+01 1.424898202931024649e+01
5.400000000000000000e+01 1.446606508021895543e+01
5.500000000000000000e+01 1.468657737954533360e+01
5.600000000000000000e+01 1.490590585509749388e+01
5.700000000000000000e+01 1.511963592919625832e+01
5.800000000000000000e+01 1.533523166967280815e+01
5.900000000000000000e+01 1.555304445320886053e+01
6.000000000000000000e+01 1.576777291155293170e+01
6.100000000000000000e+01 1.598076738183883094e+01
6.200000000000000000e+01 1.619503819085618090e+01
6.300000000000000000e+01 1.640504196337194642e+01
6.400000000000000000e+01 1.661897729461114537e+01
6.500000000000000000e+01 1.683026119771734841e+01
6.600000000000000000e+01 1.704291611605693291e+01
6.700000000000000000e+01 1.725339926796524992e+01
6.800000000000000000e+01 1.746414898036323393e+01
6.900000000000000000e+01 1.767225470479322524e+01
7.000000000000000000e+01 1.788298549895543488e+01
7.100000000000000000e+01 1.809253690410602289e+01
7.200000000000000000e+01 1.830477485729610265e+01
7.300000000000000000e+01 1.851736302686502711e+01
7.400000000000000000e+01 1.872950899252134249e+01
7.500000000000000000e+01 1.893938873066968043e+01
7.600000000000000000e+01 1.915224082246376369e+01
7.700000000000000000e+01 1.936618436531632526e+01
7.800000000000000000e+01 1.957433564174327145e+01
7.900000000000000000e+01 1.978095021287956357e+01
8.000000000000000000e+01 1.998738430401252941e+01
8.100000000000000000e+01 2.019305922105068518e+01
8.200000000000000000e+01 2.040022488070120232e+01
8.300000000000000000e+01 2.060905339222593469e+01
8.400000000000000000e+01 2.081835936468931436e+01
8.500000000000000000e+01 2.103402995099104089e+01
8.600000000000000000e+01 2.124375263571461048e+01
8.700000000000000000e+01 2.145156222614026476e+01
8.800000000000000000e+01 2.166533709456183487e+01
8.900000000000000000e+01 2.187874879410611939e+01
9.000000000000000000e+01 2.209114598965398102e+01
9.100000000000000000e+01 2.231045584520274261e+01
9.200000000000000000e+01 2.252437978975174460e+01
9.300000000000000000e+01 2.273772431460190546e+01
9.400000000000000000e+01 2.295205030570047811e+01
9.500000000000000000e+01 2.316464650403034042e+01
9.600000000000000000e+01 2.337786460232275587e+01
9.700000000000000000e+01 2.359224359934478343e+01
9.800000000000000000e+01 2.380778265855208886e+01
9.900000000000000000e+01 2.402629710892558634e+01
1.000000000000000000e+02 2.424407585940905463e+01
1.010000000000000000e+02 2.446094221447966888e+01
1.020000000000000000e+02 2.467873487876899574e+01
1.030000000000000000e+02 2.489955634844493559e+01
1.040000000000000000e+02 2.511182426103081511e+01
1.050000000000000000e+02 2.532697577580595194e+01
1.060000000000000000e+02 2.554004786155330819e+01
1.070000000000000000e+02 2.575201903959601779e+01
1.080000000000000000e+02 2.596809566090881916e+01
1.090000000000000000e+02 2.618191067614867507e+01
1.100000000000000000e+02 2.639803836444495388e+01
1.110000000000000000e+02 2.661293784037343002e+01
1.120000000000000000e+02 2.682173697859118633e+01
1.130000000000000000e+02 2.703277476107927768e+01
1.140000000000000000e+02 2.724304319917751727e+01
1.150000000000000000e+02 2.745535704103177821e+01
1.160000000000000000e+02 2.766852549592714183e+01
1.170000000000000000e+02 2.787628366610816855e+01
1.180000000000000000e+02 2.809209454858762811e+01
1.190000000000000000e+02 2.830294973606676123e+01
1.200000000000000000e+02 2.851571548694799674e+01
1.210000000000000000e+02 2.872618541678669501e+01
1.220000000000000000e+02 2.893513988323199371e+01
1.230000000000000000e+02 2.914179756553125245e+01
1.240000000000000000e+02 2.935012539168598877e+01
1.250000000000000000e+02 2.955980438788158082e+01
1.260000000000000000e+02 2.976693329376059793e+01
1.270000000000000000e+02 2.997229157122542986e+01
1.280000000000000000e+02 3.017740230330727869e+01
1.290000000000000000e+02 3.038773192906166187e+01
1.300000000000000000e+02 3.059926959193355245e+01
1.310000000000000000e+02 3.080870403191491036e+01
1.320000000000000000e+02 3.101550310721493631e+01
1.330000000000000000e+02 3.122503377812851966e+01
1.340000000000000000e+02 3.143340813647522580e+01
1.350000000000000000e+02 3.164680026335325636e+01
1.360000000000000000e+02 3.185840481262285451e+01
1.370000000000000000e+02 3.206738501168688771e+01
1.380000000000000000e+02 3.227816623224353521e+01
1.390000000000000000e+02 3.248919849127071302e+01
1.400000000000000000e+02 3.269836954696737763e+01
1.410000000000000000e+02 3.290513874572592812e+01
1.420000000000000000e+02 3.311520668951620650e+01
1.430000000000000000e+02 3.332134861548227178e+01
1.440000000000000000e+02 3.353107436436868483e+01
1.450000000000000000e+02 3.373504329875138552e+01
1.460000000000000000e+02 3.394231145955521356e+01
1.470000000000000000e+02 3.415205705090841093e+01
1.480000000000000000e+02 3.436018660035017547e+01
1.490000000000000000e+02 3.456809912187325295e+01
1.500000000000000000e+02 3.477645234189079559e+01
1.510000000000000000e+02 3.498306421772354469e+01
1.520000000000000000e+02 3.519933010730964185e+01
1.530000000000000000e+02 3.540934330433489663e+01
1.540000000000000000e+02 3.562343701364732595e+01
1.550000000000000000e+02 3.583189797965032852e+01
1.560000000000000000e+02 3.604512837831731531e+01
1.570000000000000000e+02 3.625347780837835643e+01
1.580000000000000000e+02 3.646279762698020477e+01
1.590000000000000000e+02 3.667498559557333948e+01
1.600000000000000000e+02 3.688420684357667056e+01
1.610000000000000000e+02 3.709553477768784546e+01
1.620000000000000000e+02 3.730446663788837469e+01
1.630000000000000000e+02 3.751506455824847563e+01
1.640000000000000000e+02 3.773337201958133846e+01
1.650000000000000000e+02 3.794399824513894259e+01
1.660000000000000000e+02 3.816101427143541258e+01
1.670000000000000000e+02 3.837772021714540216e+01
1.680000000000000000e+02 3.859094912911868391e+01
1.690000000000000000e+02 3.880802116274690405e+01
1.700000000000000000e+02 3.902323567976753793e+01
1.710000000000000000e+02 3.923663848558913969e+01
1.720000000000000000e+02 3.945145531181702836e+01
1.730000000000000000e+02 3.966822823509333062e+01
1.740000000000000000e+02 3.989125792097635781e+01
1.750000000000000000e+02 4.010599837815644264e+01
1.760000000000000000e+02 4.032032931347536930e+01
1.770000000000000000e+02 4.053545158166961215e+01
1.780000000000000000e+02 4.075016701150217813e+01
1.790000000000000000e+02 4.096725945314759798e+01
1.800000000000000000e+02 4.118431270557241675e+01
1.810000000000000000e+02 4.139991292219239227e+01
1.820000000000000000e+02 4.161562376001746344e+01
1.830000000000000000e+02 4.183068341528010592e+01
1.840000000000000000e+02 4.204426558061283004e+01
1.850000000000000000e+02 4.225787154518811661e+01
1.860000000000000000e+02 4.246699191595971001e+01
1.870000000000000000e+02 4.267468417629243760e+01
1.880000000000000000e+02 4.288469941007333119e+01
1.890000000000000000e+02 4.309563054441220942e+01
1.900000000000000000e+02 4.330625855244304745e+01
1.910000000000000000e+02 4.351980890684641423e+01
1.920000000000000000e+02 4.372933486849254336e+01
1.930000000000000000e+02 4.394112685508966365e+01
1.940000000000000000e+02 4.414946867138829134e+01
1.950000000000000000e+02 4.435977620145237665e+01
1.960000000000000000e+02 4.457149353234716926e+01
1.970000000000000000e+02 4.478211863780440893e+01
1.980000000000000000e+02 4.499536573653248439e+01
1.990000000000000000e+02 4.520396499390907508e+01
2.000000000000000000e+02 4.541332205871557903e+01
2.010000000000000000e+02 4.562228315662141398e+01
2.020000000000000000e+02 4.582853920267161385e+01
2.030000000000000000e+02 4.603624728165522129e+01
2.040000000000000000e+02 4.624563948876662067e+01
2.050000000000000000e+02 4.645733135294829452e+01
2.060000000000000000e+02 4.666819567129274304e+01
2.070000000000000000e+02 4.687682069442386279e+01
2.080000000000000000e+02 4.708722610213510507e+01
2.090000000000000000e+02 4.729655178436354390e+01
2.100000000000000000e+02 4.750927311241807871e+01
2.110000000000000000e+02 4.771766117466325596e+01
2.120000000000000000e+02 4.793148424682715358e+01
2.130000000000000000e+02 4.814444641126403468e+01
2.140000000000000000e+02 4.835644069808449075e+01
2.150000000000000000e+02 4.857256531800617694e+01
2.160000000000000000e+02 4.878621963134833805e+01
2.170000000000000000e+02 4.899763042090257414e+01
2.180000000000000000e+02 4.921138510685572243e+01
2.190000000000000000e+02 4.942522678871995367e+01
2.200000000000000000e+02 4.963505477571377611e+01
2.210000000000000000e+02 4.984497991413717699e+01
2.220000000000000000e+02 5.005522156625647057e+01
2.230000000000000000e+02 5.026274799242852964e+01
2.240000000000000000e+02 5.047038031708000716e+01
2.250000000000000000e+02 5.067970937828716416e+01
2.260000000000000000e+02 5.088859606808486546e+01
2.270000000000000000e+02 5.109901135991532328e+01
2.280000000000000000e+02 5.130726690347623986e+01
2.290000000000000000e+02 5.151744575509920310e+01
2.300000000000000000e+02 5.172810601787814022e+01
2.310000000000000000e+02 5.193692485161007966e+01
2.320000000000000000e+02 5.214530428248840366e+01
2.330000000000000000e+02 5.235680796947491444e+01
2.340000000000000000e+02 5.256560245445157165e+01
2.350000000000000000e+02 5.277906216379556525e+01
2.360000000000000000e+02 5.299499253119214615e+01
2.370000000000000000e+02 5.320738427051339414e+01
2.380000000000000000e+02 5.341958123220825172e+01
2.390000000000000000e+02 5.363228376332263991e+01
2.400000000000000000e+02 5.384901077166197325e+01
2.410000000000000000e+02 5.405990954502521362e+01
2.420000000000000000e+02 5.427296979460360404e+01
2.430000000000000000e+02 5.448802211062467649e+01
2.440000000000000000e+02 5.470004174491744919e+01
2.450000000000000000e+02 5.491477189922867552e+01
2.460000000000000000e+02 5.512959938837818186e+01
2.470000000000000000e+02 5.534517572668593743e+01
2.480000000000000000e+02 5.555760479493710591e+01
2.490000000000000000e+02 5.577004436596248382e+01
2.500000000000000000e+02 5.598509646538578721e+01
2.510000000000000000e+02 5.619698102097735415e+01
2.520000000000000000e+02 5.640673608218901336e+01
2.530000000000000000e+02 5.661719609876087134e+01
2.540000000000000000e+02 5.683173442823434129e+01
2.550000000000000000e+02 5.704818066048423475e+01
2.560000000000000000e+02 5.726403801897826185e+01
2.570000000000000000e+02 5.748179036605272785e+01
2.580000000000000000e+02 5.769954426311905848e+01
2.590000000000000000e+02 5.792165799129956127e+01
2.600000000000000000e+02 5.814322485114598749e+01
2.610000000000000000e+02 5.836453598782271257e+01
2.620000000000000000e+02 5.858152684190906712e+01
2.630000000000000000e+02 5.880043495649538698e+01
2.640000000000000000e+02 5.901792974656075330e+01
2.650000000000000000e+02 5.923464740816456242e+01
2.660000000000000000e+02 5.945171340986566832e+01
2.670000000000000000e+02 5.966913940506749015e+01
2.680000000000000000e+02 5.988390017891779848e+01
2.690000000000000000e+02 6.010015682285689564e+01
2.700000000000000000e+02 6.031599625766141770e+01
2.710000000000000000e+02 6.053409632663258577e+01
2.720000000000000000e+02 6.074600153786818879e+01
2.730000000000000000e+02 6.096410248379837782e+01
2.740000000000000000e+02 6.118211908783465702e+01
2.750000000000000000e+02 6.140016312063364268e+01
2.760000000000000000e+02 6.161119534646147855e+01
2.770000000000000000e+02 6.182596948828768291e+01
2.780000000000000000e+02 6.203888088996585992e+01
2.790000000000000000e+02 6.225278480295387595e+01
2.800000000000000000e+02 6.246605938727315532e+01
2.810000000000000000e+02 6.267929599612688207e+01
2.820000000000000000e+02 6.289380810297607383e+01
2.830000000000000000e+02 6.310660682014697187e+01
2.840000000000000000e+02 6.331741475257293672e+01
2.850000000000000000e+02 6.352820086720858939e+01
2.860000000000000000e+02 6.374215965572389564e+01
2.870000000000000000e+02 6.395779525867980198e+01
2.880000000000000000e+02 6.416892656984840926e+01
2.890000000000000000e+02 6.437707905599340563e+01
2.900000000000000000e+02 6.459218236870198382e+01
2.910000000000000000e+02 6.480499749518953934e+01
2.920000000000000000e+02 6.501551607910288055e+01
2.930000000000000000e+02 6.522837297038942950e+01
2.940000000000000000e+02 6.543546542811537847e+01
2.950000000000000000e+02 6.565045593575966620e+01
2.960000000000000000e+02 6.586447793067129908e+01
2.970000000000000000e+02 6.607648343167905125e+01
2.980000000000000000e+02 6.629169507712283860e+01
2.990000000000000000e+02 6.650041064764826615e+01
3.000000000000000000e+02 6.671099381467935530e+01
3.010000000000000000e+02 6.692341551845140657e+01
3.020000000000000000e+02 6.713249556275133045e+01
3.030000000000000000e+02 6.734407101835945753e+01
3.040000000000000000e+02 6.755299153026159331e+01
3.050000000000000000e+02 6.776583259628328904e+01
3.060000000000000000e+02 6.797757848235036704e+01
3.070000000000000000e+02 6.818998196566872139e+01
3.080000000000000000e+02 6.840076572423231482e+01
3.090000000000000000e+02 6.860984964116403262e+01
3.100000000000000000e+02 6.881741451753028116e+01
3.110000000000000000e+02 6.902693127762954362e+01
3.120000000000000000e+02 6.923410205038435095e+01
3.130000000000000000e+02 6.944351540369804354e+01
3.140000000000000000e+02 6.965122479306523928e+01
3.150000000000000000e+02 6.985567151103775529e+01
3.160000000000000000e+02 7.006182910192548263e+01
3.170000000000000000e+02 7.027454478171625851e+01
3.180000000000000000e+02 7.048157576823557235e+01
3.190000000000000000e+02 7.068976243238540746e+01
3.200000000000000000e+02 7.089809124198903589e+01
3.210000000000000000e+02 7.110551551771341394e+01
3.220000000000000000e+02 7.131301033593085492e+01
3.230000000000000000e+02 7.152055029764694893e+01
3.240000000000000000e+02 7.172872953173155963e+01
3.250000000000000000e+02 7.193373914520783785e+01
3.260000000000000000e+02 7.213801856790566092e+01
3.270000000000000000e+02 7.234175226543094084e+01
3.280000000000000000e+02 7.254822079252555511e+01
3.290000000000000000e+02 7.275714396074029366e+01
3.300000000000000000e+02 7.296607096444132878e+01
3.310000000000000000e+02 7.317286363643918889e+01
3.320000000000000000e+02 7.337906364775214740e+01
3.330000000000000000e+02 7.358300301930979970e+01
3.340000000000000000e+02 7.378879305493950369e+01
3.350000000000000000e+02 7.399532981371345386e+01
3.360000000000000000e+02 7.420586384551786807e+01
3.370000000000000000e+02 7.441158191328732130e+01
3.380000000000000000e+02 7.462138652746214973e+01
3.390000000000000000e+02 7.483052321684522212e+01
3.400000000000000000e+02 7.503724106678878059e+01
3.410000000000000000e+02 7.524789199457795519e+01
3.420000000000000000e+02 7.545983168558551313e+01
3.430000000000000000e+02 7.567178288167372102e+01
3.440000000000000000e+02 7.588345418528278685e+01
3.450000000000000000e+02 7.609126215275840366e+01
3.460000000000000000e+02 7.630488877256105695e+01
3.470000000000000000e+02 7.651815585533596220e+01
3.480000000000000000e+02 7.673277860039227960e+01
3.490000000000000000e+02 7.694293020311330622e+01
3.500000000000000000e+02 7.715139072225348116e+01
3.510000000000000000e+02 7.735739657801552482e+01
3.520000000000000000e+02 7.756752260280420330e+01
3.530000000000000000e+02 7.778084520872265273e+01
3.540000000000000000e+02 7.798961840624548358e+01
3.550000000000000000e+02 7.819633908777569786e+01
3.560000000000000000e+02 7.840592773859073361e+01
3.570000000000000000e+02 7.861170217005296479e+01
3.580000000000000000e+02 7.881759037059113382e+01
3.590000000000000000e+02 7.902785794806908370e+01
3.600000000000000000e+02 7.923489972241013390e+01
3.610000000000000000e+02 7.944379508782151333e+01
3.620000000000000000e+02 7.965053445964628054e+01
3.630000000000000000e+02 7.985963541411759081e+01
3.640000000000000000e+02 8.006665966051677685e+01
3.650000000000000000e+02 8.027478231059372149e+01
3.660000000000000000e+02 8.048322485308212038e+01
3.670000000000000000e+02 8.069484549663444284e+01
3.680000000000000000e+02 8.090495478026268472e+01
3.690000000000000000e+02 8.111609201102019995e+01
3.700000000000000000e+02 8.132486572588480556e+01
3.710000000000000000e+02 8.153331916302794014e+01
3.720000000000000000e+02 8.174233857245157253e+01
3.730000000000000000e+02 8.194902766161958141e+01
3.740000000000000000e+02 8.215705887579422040e+01
3.750000000000000000e+02 8.236466216928384654e+01
3.760000000000000000e+02 8.257479780220485566e+01
3.770000000000000000e+02 8.278217210040163820e+01
3.780000000000000000e+02 8.299049069777349530e+01
3.790000000000000000e+02 8.319576784362878641e+01
3.800000000000000000e+02 8.340392980893840047e+01
3.810000000000000000e+02 8.360860648815537388e+01
3.820000000000000000e+02 8.381098175013795526e+01
3.830000000000000000e+02 8.401889557620866356e+01
3.840000000000000000e+02 8.422499034753066383e+01
3.850000000000000000e+02 8.442985336615086567e+01
3.860000000000000000e+02 8.463629171214414271e+01
3.870000000000000000e+02 8.484093599705526856e+01
3.880000000000000000e+02 8.504551284617127749e+01
3.890000000000000000e+02 8.525303334465434091e+01
3.900000000000000000e+02 8.545880336610871097e+01
3.910000000000000000e+02 8.566695586749557378e+01
3.920000000000000000e+02 8.587406003202613647e+01
3.930000000000000000e+02 8.608493408381126244e+01
3.940000000000000000e+02 8.629419298537101213e+01
3.950000000000000000e+02 8.650293589849133014e+01
3.960000000000000000e+02 8.671317845758737519e+01
3.970000000000000000e+02 8.692304252902751216e+01
3.980000000000000000e+02 8.713464451493705099e+01
