# time (ps)	msd (A2)
0.000000000000000000e+00 6.628844179378956406e-04
1.000000000000000000e+00 9.283326960330806621e-01
2.000000000000000000e+00 1.351872109195723981e+00
3.000000000000000000e+00 1.730435583824839085e+00
4.000000000000000000e+00 2.084585486743282701e+00
5.000000000000000000e+00 2.415245755803263172e+00
6.000000000000000000e+00 2.737818415448445730e+00
7.000000000000000000e+00 3.051155284359769126e+00
8.000000000000000000e+00 3.357817209804606851e+00
9.000000000000000000e+00 3.653316254873056668e+00
1.000000000000000000e+01 3.946732496093576348e+00
1.100000000000000000e+01 4.232004867881265398e+00
1.200000000000000000e+01 4.514311901359576495e+00
1.300000000000000000e+01 4.787849641694316816e+00
1.400000000000000000e+01 5.060767288130183950e+00
1.500000000000000000e+01 5.334587096579696208e+00
1.600000000000000000e+01 5.597910161138311302e+00
1.700000000000000000e+01 5.862191579872852110e+00
1.800000000000000000e+01 6.124241233989340394e+00
1.900000000000000000e+01 6.384544645035266974e+00
2.000000000000000000e+01 6.641054146337856956e+00
2.100000000000000000e+01 6.892649941318123474e+00
2.200000000000000000e+01 7.145404809703154392e+00
2.300000000000000000e+01 7.391782059017582007e+00
2.400000000000000000e+01 7.640082234332914446e+00
2.500000000000000000e+01 7.887362208652883844e+00
2.600000000000000000e+01 8.129997717723181694e+00
2.700000000000000000e+01 8.370920926369651127e+00
2.800000000000000000e+01 8.610822151221293907e+00
2.900000000000000000e+01 8.850628842469275170e+00
3.000000000000000000e+01 9.085692300211706041e+00
3.100000000000000000e+01 9.321843565761589900e+00
3.200000000000000000e+01 9.555338396079626762e+00
3.300000000000000000e+01 9.789734321148200635e+00
3.400000000000000000e+01 1.002276152348400551e+01
3.500000000000000000e+01 1.025429350419223162e+01
3.600000000000000000e+01 1.047890909954469585e+01
3.700000000000000000e+01 1.070767171662387796e+01
3.800000000000000000e+01 1.093439093465131862e+01
3.900000000000000000e+01 1.116492828337751142e+01
4.000000000000000000e+01 1.139267593475325846e+01
4.100000000000000000e+01 1.161477411289074269e+01
4.200000000000000000e+01 1.183950601906691169e+01
4.300000000000000000e+01 1.205653276627046466e+01
4.400000000000000000e+01 1.227829877514939660e+01
4.500000000000000000e+01 1.250013009985709012e+01
4.600000000000000000e+01 1.272039009048930325e+01
4.700000000000000000e+01 1.294154912458805207e+01
4.800000000000000000e+01 1.315689533508693110e+01
4.900000000000000000e+01 1.337207238031367496e+01
5.000000000000000000e+01 1.359069696731446619e+01
5.100000000000000000e+01 1.381269458501610359e+01
5.200000000000000000e+01 1.403454635284770724e+01
5.300000000000000000e+01 1.425560126074975109e+01
5.400000000000000000e+01 1.447231932819710032e+01
5.500000000000000000e+01 1.469319207831259355e+01
5.600000000000000000e+01 1.491306805625037235e+01
5.700000000000000000e+01 1.512696223084330605e+01
5.800000000000000000e+01 1.534127733852262132e+01
5.900000000000000000e+01 1.555960662771409098e+01
6.000000000000000000e+01 1.577547688857435837e+01
6.100000000000000000e+01 1.598961802587095349e+01
6.200000000000000000e+01 1.620453656670359166e+01
6.300000000000000000e+01 1.641744748399982257e+01
6.400000000000000000e+01 1.663074940162321980e+01
6.500000000000000000e+01 1.684488299194444494e+01
6.600000000000000000e+01 1.705976744704594950e+01
6.700000000000000000e+01 1.726905416056182574e+01
6.800000000000000000e+01 1.747847644862972416e+01
6.900000000000000000e+01 1.768373974101560364e+01
7.000000000000000000e+01 1.789405659554071448e+01
7.100000000000000000e+01 1.810366100238842435e+01
7.200000000000000000e+01 1.831545004660582521e+01
7.300000000000000000e+01 1.852866799757599381e+01
7.400000000000000000e+01 1.873912059807740249e+01
7.500000000000000000e+01 1.894817572212083689e+01
7.600000000000000000e+01 1.915871908404948698e+01
7.700000000000000000e+01 1.937316234105189139e+01
7.800000000000000000e+01 1.958323755475268158e+01
7.900000000000000000e+01 1.978920063995229484e+01
8.000000000000000000e+01 1.999583985616755655e+01
8.100000000000000000e+01 2.020303874457981053e+01
8.200000000000000000e+01 2.041039091121751881e+01
8.300000000000000000e+01 2.061961529385581215e+01
8.400000000000000000e+01 2.082918175585909992e+01
8.500000000000000000e+01 2.104316605128112982e+01
8.600000000000000000e+01 2.125658638000270884e+01
8.700000000000000000e+01 2.146637393172585462e+01
8.800000000000000000e+01 2.168289211513415538e+01
8.900000000000000000e+01 2.189602174458370243e+01
9.000000000000000000e+01 2.210844369056273706e+01
9.100000000000000000e+01 2.232523862393468050e+01
9.200000000000000000e+01 2.253701823784662039e+01
9.300000000000000000e+01 2.274947579847788504e+01
9.400000000000000000e+01 2.296457288515068385e+01
9.500000000000000000e+01 2.318112973710161384e+01
9.600000000000000000e+01 2.339407045362564119e+01
9.700000000000000000e+01 2.361072194358388288e+01
9.800000000000000000e+01 2.382875084419202949e+01
9.900000000000000000e+01 2.405042874173203415e+01
1.000000000000000000e+02 2.427059730926289305e+01
1.010000000000000000e+02 2.449082974957448755e+01
1.020000000000000000e+02 2.471105624793204925e+01
1.030000000000000000e+02 2.493360568474731664e+01
1.040000000000000000e+02 2.514697690098982719e+01
1.050000000000000000e+02 2.536525365174066948e+01
1.060000000000000000e+02 2.558431165173133692e+01
1.070000000000000000e+02 2.580034346034829085e+01
1.080000000000000000e+02 2.602034791955965076e+01
1.090000000000000000e+02 2.623838766419126145e+01
1.100000000000000000e+02 2.645740338534364966e+01
1.110000000000000000e+02 2.667464455605592022e+01
1.120000000000000000e+02 2.688725172971310329e+01
1.130000000000000000e+02 2.710005937020090627e+01
1.140000000000000000e+02 2.731453828037010112e+01
1.150000000000000000e+02 2.752939911055143440e+01
1.160000000000000000e+02 2.774687214067497720e+01
1.170000000000000000e+02 2.795938619713223261e+01
1.180000000000000000e+02 2.817843299272460555e+01
1.190000000000000000e+02 2.839400137749564124e+01
1.200000000000000000e+02 2.861096035678643190e+01
1.210000000000000000e+02 2.882341366954343087e+01
1.220000000000000000e+02 2.903576096315268629e+01
1.230000000000000000e+02 2.924962693676667058e+01
1.240000000000000000e+02 2.946372580484573689e+01
1.250000000000000000e+02 2.967789535606542373e+01
1.260000000000000000e+02 2.989021568695411091e+01
1.270000000000000000e+02 3.010130370095030017e+01
1.280000000000000000e+02 3.030985697068073748e+01
1.290000000000000000e+02 3.052441268283130782e+01
1.300000000000000000e+02 3.073902917761485654e+01
1.310000000000000000e+02 3.095349883739822872e+01
1.320000000000000000e+02 3.116509144079557814e+01
1.330000000000000000e+02 3.138017200300731702e+01
1.340000000000000000e+02 3.159426393023156265e+01
1.350000000000000000e+02 3.181147611568308875e+01
1.360000000000000000e+02 3.203008767011061764e+01
1.370000000000000000e+02 3.224431750127331497e+01
1.380000000000000000e+02 3.246072813024798620e+01
1.390000000000000000e+02 3.267534568241627113e+01
1.400000000000000000e+02 3.288954546382296229e+01
1.410000000000000000e+02 3.310326679413956441e+01
1.420000000000000000e+02 3.331764321950056029e+01
1.430000000000000000e+02 3.353279167260689775e+01
1.440000000000000000e+02 3.374909852846738545e+01
1.450000000000000000e+02 3.396204326451290711e+01
1.460000000000000000e+02 3.417651497271094030e+01
1.470000000000000000e+02 3.439153136978442404e+01
1.480000000000000000e+02 3.460560009217105204e+01
1.490000000000000000e+02 3.482081835951518656e+01
1.500000000000000000e+02 3.503529936257987742e+01
1.510000000000000000e+02 3.525011974470145759e+01
1.520000000000000000e+02 3.547252673491536257e+01
1.530000000000000000e+02 3.568910227576603234e+01
1.540000000000000000e+02 3.590806442628601047e+01
1.550000000000000000e+02 3.612369559934371210e+01
1.560000000000000000e+02 3.634131655084014056e+01
1.570000000000000000e+02 3.655798713402158029e+01
1.580000000000000000e+02 3.677369528071854887e+01
1.590000000000000000e+02 3.699157003786528009e+01
1.600000000000000000e+02 3.720603264834901580e+01
1.610000000000000000e+02 3.742398748529588914e+01
1.620000000000000000e+02 3.764193872513872208e+01
1.630000000000000000e+02 3.785932756200694627e+01
1.640000000000000000e+02 3.808302029972508507e+01
1.650000000000000000e+02 3.829708695954651176e+01
1.660000000000000000e+02 3.851728845452655747e+01
1.670000000000000000e+02 3.873757841784435385e+01
1.680000000000000000e+02 3.895418897278124604e+01
1.690000000000000000e+02 3.917230713695113309e+01
1.700000000000000000e+02 3.939322545936855136e+01
1.710000000000000000e+02 3.960834540051111929e+01
1.720000000000000000e+02 3.982353145027878583e+01
1.730000000000000000e+02 4.004223549821767847e+01
1.740000000000000000e+02 4.026619528302543216e+01
1.750000000000000000e+02 4.048218602248714149e+01
1.760000000000000000e+02 4.069914946896341945e+01
1.770000000000000000e+02 4.091642578267030217e+01
1.780000000000000000e+02 4.113332905081668400e+01
1.790000000000000000e+02 4.135361162171648886e+01
1.800000000000000000e+02 4.157441199024363243e+01
1.810000000000000000e+02 4.179014579020945064e+01
1.820000000000000000e+02 4.200918921448610632e+01
1.830000000000000000e+02 4.222574040425353559e+01
1.840000000000000000e+02 4.244057299672564199e+01
1.850000000000000000e+02 4.265581848257381381e+01
1.860000000000000000e+02 4.286874856606181083e+01
1.870000000000000000e+02 4.307754472935204149e+01
1.880000000000000000e+02 4.328964216329763559e+01
1.890000000000000000e+02 4.350371450964610176e+01
1.900000000000000000e+02 4.371723832365801599e+01
1.910000000000000000e+02 4.393390829269305442e+01
1.920000000000000000e+02 4.414682792979068182e+01
1.930000000000000000e+02 4.436476144021346357e+01
1.940000000000000000e+02 4.457806215440101738e+01
1.950000000000000000e+02 4.479146616230670475e+01
1.960000000000000000e+02 4.500710130200777570e+01
1.970000000000000000e+02 4.522148312286375926e+01
1.980000000000000000e+02 4.543691765720310372e+01
1.990000000000000000e+02 4.564694288011207846e+01
2.000000000000000000e+02 4.586014400260230417e+01
2.010000000000000000e+02 4.607567428294245815e+01
2.020000000000000000e+02 4.628572556660885340e+01
2.030000000000000000e+02 4.649762396358858751e+01
2.040000000000000000e+02 4.671233700903845687e+01
2.050000000000000000e+02 4.693123294263967438e+01
2.060000000000000000e+02 4.714576601545400791e+01
2.070000000000000000e+02 4.736104999569068497e+01
2.080000000000000000e+02 4.757737622683388423e+01
2.090000000000000000e+02 4.779435256527109033e+01
2.100000000000000000e+02 4.801206065526994848e+01
2.110000000000000000e+02 4.822570903929442920e+01
2.120000000000000000e+02 4.844549326946759038e+01
2.130000000000000000e+02 4.866475415806655747e+01
2.140000000000000000e+02 4.888131675529385944e+01
2.150000000000000000e+02 4.910310263249079554e+01
2.160000000000000000e+02 4.932169899639254851e+01
2.170000000000000000e+02 4.953845501304684262e+01
2.180000000000000000e+02 4.975743186019644781e+01
2.190000000000000000e+02 4.997806070921842547e+01
2.200000000000000000e+02 5.019576744476881913e+01
2.210000000000000000e+02 5.041271767320020558e+01
2.220000000000000000e+02 5.063043404126013769e+01
2.230000000000000000e+02 5.084647876493472296e+01
2.240000000000000000e+02 5.106163004850719034e+01
2.250000000000000000e+02 5.127674341962457305e+01
2.260000000000000000e+02 5.149101816439532087e+01
2.270000000000000000e+02 5.170462806529722144e+01
2.280000000000000000e+02 5.191366632472389853e+01
2.290000000000000000e+02 5.212582949317950920e+01
2.300000000000000000e+02 5.233930150443104168e+01
2.310000000000000000e+02 5.255099386860594990e+01
2.320000000000000000e+02 5.276303499600231106e+01
2.330000000000000000e+02 5.297902228183594531e+01
2.340000000000000000e+02 5.319419994438585064e+01
2.350000000000000000e+02 5.341179046506093187e+01
2.360000000000000000e+02 5.363207758507375189e+01
2.370000000000000000e+02 5.384743609892216654e+01
2.380000000000000000e+02 5.406189190319580717e+01
2.390000000000000000e+02 5.427981532716393076e+01
2.400000000000000000e+02 5.450137849116271127e+01
2.410000000000000000e+02 5.471711701122351457e+01
2.420000000000000000e+02 5.493631287528841511e+01
2.430000000000000000e+02 5.515513577741668172e+01
2.440000000000000000e+02 5.537141577859635078e+01
2.450000000000000000e+02 5.559128061729769144e+01
2.460000000000000000e+02 5.580862487573525499e+01
2.470000000000000000e+02 5.602608980532289706e+01
2.480000000000000000e+02 5.624240505896811015e+01
2.490000000000000000e+02 5.645701870271462752e+01
2.500000000000000000e+02 5.667602601326751710e+01
2.510000000000000000e+02 5.689077216728376385e+01
2.520000000000000000e+02 5.710385516417775165e+01
2.530000000000000000e+02 5.731796557654547541e+01
2.540000000000000000e+02 5.753307788479975216e+01
2.550000000000000000e+02 5.775097112423500079e+01
2.560000000000000000e+02 5.796670833467972983e+01
2.570000000000000000e+02 5.818428068820602306e+01
2.580000000000000000e+02 5.840154725024409998e+01
2.590000000000000000e+02 5.862151445341844891e+01
2.600000000000000000e+02 5.884254611843307003e+01
2.610000000000000000e+02 5.906243826921313911e+01
2.620000000000000000e+02 5.927921434599843309e+01
2.630000000000000000e+02 5.949699454183139125e+01
2.640000000000000000e+02 5.971429582696624294e+01
2.650000000000000000e+02 5.992978971456059867e+01
2.660000000000000000e+02 6.014630651281385099e+01
2.670000000000000000e+02 6.036357885913383825e+01
2.680000000000000000e+02 6.057867761876108403e+01
2.690000000000000000e+02 6.079203117944243928e+01
2.700000000000000000e+02 6.100727112336529245e+01
2.710000000000000000e+02 6.122574516192040051e+01
2.720000000000000000e+02 6.143851198354774823e+01
2.730000000000000000e+02 6.165574024874104708e+01
2.740000000000000000e+02 6.187161343717860973e+01
2.750000000000000000e+02 6.208757522261742423e+01
2.760000000000000000e+02 6.229891782826439339e+01
2.770000000000000000e+02 6.251135306211589437e+01
2.780000000000000000e+02 6.272365909107431747e+01
2.790000000000000000e+02 6.293615239975931530e+01
2.800000000000000000e+02 6.315181317106890191e+01
2.810000000000000000e+02 6.336334187399153706e+01
2.820000000000000000e+02 6.357616031402178436e+01
2.830000000000000000e+02 6.378688989598936132e+01
2.840000000000000000e+02 6.399603554515044834e+01
2.850000000000000000e+02 6.420793384633662981e+01
2.860000000000000000e+02 6.442274292673324965e+01
2.870000000000000000e+02 6.463848813294104900e+01
2.880000000000000000e+02 6.485188960362982868e+01
2.890000000000000000e+02 6.506133054816055505e+01
2.900000000000000000e+02 6.527677851582258484e+01
2.910000000000000000e+02 6.549046781571570364e+01
2.920000000000000000e+02 6.570197668271732994e+01
2.930000000000000000e+02 6.591652681525179958e+01
2.940000000000000000e+02 6.612375845820054110e+01
2.950000000000000000e+02 6.633694642752584514e+01
2.960000000000000000e+02 6.655088858072373625e+01
2.970000000000000000e+02 6.676388157600496243e+01
2.980000000000000000e+02 6.698054151501595754e+01
2.990000000000000000e+02 6.719415595250994500e+01
3.000000000000000000e+02 6.740639315348413163e+01
3.010000000000000000e+02 6.762063542967329965e+01
3.020000000000000000e+02 6.783214395439186717e+01
3.030000000000000000e+02 6.804459247246029463e+01
3.040000000000000000e+02 6.825801335183869867e+01
3.050000000000000000e+02 6.847365947187523716e+01
3.060000000000000000e+02 6.869027394948643916e+01
3.070000000000000000e+02 6.890869587518466233e+01
3.080000000000000000e+02 6.912151817832489087e+01
3.090000000000000000e+02 6.933512283430026457e+01
3.100000000000000000e+02 6.954657777774831118e+01
3.110000000000000000e+02 6.975719622408279008e+01
3.120000000000000000e+02 6.996450077140517010e+01
3.130000000000000000e+02 7.017521488130127238e+01
3.140000000000000000e+02 7.038607415394881173e+01
3.150000000000000000e+02 7.059208314139374352e+01
3.160000000000000000e+02 7.080120113448398911e+01
3.170000000000000000e+02 7.101521868219839462e+01
3.180000000000000000e+02 7.122388189799583813e+01
3.190000000000000000e+02 7.143688355924257394e+01
3.200000000000000000e+02 7.164490509956216613e+01
3.210000000000000000e+02 7.185521152596125205e+01
3.220000000000000000e+02 7.206520776150965446e+01
3.230000000000000000e+02 7.227513740460373981e+01
3.240000000000000000e+02 7.248483281504935860e+01
3.250000000000000000e+02 7.269585243588031176e+01
3.260000000000000000e+02 7.290370641835089316e+01
3.270000000000000000e+02 7.311217126071989014e+01
3.280000000000000000e+02 7.332250712863452691e+01
3.290000000000000000e+02 7.353242339300966535e+01
3.300000000000000000e+02 7.374263399576530276e+01
3.310000000000000000e+02 7.395094961474738682e+01
3.320000000000000000e+02 7.416106716124251363e+01
3.330000000000000000e+02 7.436395286477426225e+01
3.340000000000000000e+02 7.457203672217691803e+01
3.350000000000000000e+02 7.477925048901387584e+01
3.360000000000000000e+02 7.499159280534777849e+01
3.370000000000000000e+02 7.519884606900143353e+01
3.380000000000000000e+02 7.540792426891664491e+01
3.390000000000000000e+02 7.561770177031564799e+01
3.400000000000000000e+02 7.582625874908352159e+01
3.410000000000000000e+02 7.603730802384343690e+01
3.420000000000000000e+02 7.624909647468712137e+01
3.430000000000000000e+02 7.646341871899255693e+01
3.440000000000000000e+02 7.667597056922227239e+01
3.450000000000000000e+02 7.688625195286927294e+01
3.460000000000000000e+02 7.709912282342230583e+01
3.470000000000000000e+02 7.730916370904073176e+01
3.480000000000000000e+02 7.752448560797706989e+01
3.490000000000000000e+02 7.773299068862884553e+01
3.500000000000000000e+02 7.794226731968733191e+01
3.510000000000000000e+02 7.814652403923419399e+01
3.520000000000000000e+02 7.835626780689339910e+01
3.530000000000000000e+02 7.856985473470133741e+01
3.540000000000000000e+02 7.877868499065829155e+01
3.550000000000000000e+02 7.898447932647799519e+01
3.560000000000000000e+02 7.919448248634226672e+01
3.570000000000000000e+02 7.939992424680720262e+01
3.580000000000000000e+02 7.960567391749714261e+01
3.590000000000000000e+02 7.981781467326123902e+01
3.600000000000000000e+02 8.002576035712620239e+01
3.610000000000000000e+02 8.023438192135631652e+01
3.620000000000000000e+02 8.044075103250476388e+01
3.630000000000000000e+02 8.065121972920323401e+01
3.640000000000000000e+02 8.085939840560003233e+01
3.650000000000000000e+02 8.106902579072210813e+01
3.660000000000000000e+02 8.127951368606768767e+01
3.670000000000000000e+02 8.149213744498193535e+01
3.680000000000000000e+02 8.170064506519379677e+01
3.690000000000000000e+02 8.191209291780826618e+01
3.700000000000000000e+02 8.212311848533990144e+01
3.710000000000000000e+02 8.233350899009597867e+01
3.720000000000000000e+02 8.254111022986968749e+01
3.730000000000000000e+02 8.274845029771742588e+01
3.740000000000000000e+02 8.295766510525089643e+01
3.750000000000000000e+02 8.316527010112476148e+01
3.760000000000000000e+02 8.337603121514182192e+01
3.770000000000000000e+02 8.358656679123394895e+01
3.780000000000000000e+02 8.379410722126924327e+01
3.790000000000000000e+02 8.399944078209189513e+01
3.800000000000000000e+02 8.420909911421900063e+01
3.810000000000000000e+02 8.441468539462287879e+01
3.820000000000000000e+02 8.461868705802946522e+01
3.830000000000000000e+02 8.482558724014343454e+01
3.840000000000000000e+02 8.503273192541868752e+01
3.850000000000000000e+02 8.523923501153723237e+01
3.860000000000000000e+02 8.544605797723160379e+01
3.870000000000000000e+02 8.565331232326047939e+01
3.880000000000000000e+02 8.585883956920265803e+01
3.890000000000000000e+02 8.606824777895680256e+01
3.900000000000000000e+02 8.627514651511448562e+01
3.910000000000000000e+02 8.648333065609791959e+01
3.920000000000000000e+02 8.669132313423399694e+01
3.930000000000000000e+02 8.690298593754613421e+01
3.940000000000000000e+02 8.711156905213060497e+01
3.950000000000000000e+02 8.731813472779180074e+01
3.960000000000000000e+02 8.752783870469168903e+01
3.970000000000000000e+02 8.773695158552483520e+01
3.980000000000000000e+02 8.794742248292361353e+01
