# time (ps)	msd (pm2)
0.000000000000000000e+00 6.542291486826772679e-04
1.000000000000000000e+00 9.249166229837908482e-01
2.000000000000000000e+00 1.340493241372067379e+00
3.000000000000000000e+00 1.711702963944401024e+00
4.000000000000000000e+00 2.059405692290540379e+00
5.000000000000000000e+00 2.393361834350038464e+00
6.000000000000000000e+00 2.711523709609704902e+00
7.000000000000000000e+00 3.022032586958249389e+00
8.000000000000000000e+00 3.323552689106337610e+00
9.000000000000000000e+00 3.618600717048280124e+00
1.000000000000000000e+01 3.917047288891338575e+00
1.100000000000000000e+01 4.199817394372078461e+00
1.200000000000000000e+01 4.483966610469755310e+00
1.300000000000000000e+01 4.761607999462588836e+00
1.400000000000000000e+01 5.033774099553964376e+00
1.500000000000000000e+01 5.311985459196617576e+00
1.600000000000000000e+01 5.578979405547378256e+00
1.700000000000000000e+01 5.846735086822580918e+00
1.800000000000000000e+01 6.113272976008351733e+00
1.900000000000000000e+01 6.371322749977398558e+00
2.000000000000000000e+01 6.624375529390154504e+00
2.100000000000000000e+01 6.875478692555307525e+00
2.200000000000000000e+01 7.129476542788538929e+00
2.300000000000000000e+01 7.383735067986268774e+00
2.400000000000000000e+01 7.633291963250500523e+00
2.500000000000000000e+01 7.879104629434349860e+00
2.600000000000000000e+01 8.124229432183307509e+00
2.700000000000000000e+01 8.369122619592852530e+00
2.800000000000000000e+01 8.611490119214199268e+00
2.900000000000000000e+01 8.858601586923281701e+00
3.000000000000000000e+01 9.103744022555106952e+00
3.100000000000000000e+01 9.345591656604037567e+00
3.200000000000000000e+01 9.587525304237784596e+00
3.300000000000000000e+01 9.826355430179251726e+00
3.400000000000000000e+01 1.006445658849748881e+01
3.500000000000000000e+01 1.030533324153037356e+01
3.600000000000000000e+01 1.054284010712866504e+01
3.700000000000000000e+01 1.078161855798652269e+01
3.800000000000000000e+01 1.101813037667772122e+01
3.900000000000000000e+01 1.125099572571958717e+01
4.000000000000000000e+01 1.148859336938124542e+01
4.100000000000000000e+01 1.172747194877248056e+01
4.200000000000000000e+01 1.196332185283548455e+01
4.300000000000000000e+01 1.220186401113672048e+01
4.400000000000000000e+01 1.243517468736436093e+01
4.500000000000000000e+01 1.267146109078927374e+01
4.600000000000000000e+01 1.290288570644264610e+01
4.700000000000000000e+01 1.314141357074704075e+01
4.800000000000000000e+01 1.338111810291674431e+01
4.900000000000000000e+01 1.361724320544589517e+01
5.000000000000000000e+01 1.386078865353499978e+01
5.100000000000000000e+01 1.409317691978960418e+01
5.200000000000000000e+01 1.432339117866495393e+01
5.300000000000000000e+01 1.455570231774050427e+01
5.400000000000000000e+01 1.479035587639270233e+01
5.500000000000000000e+01 1.502545276238230798e+01
5.600000000000000000e+01 1.525864630204834249e+01
5.700000000000000000e+01 1.549324060324460994e+01
5.800000000000000000e+01 1.572642574136068916e+01
5.900000000000000000e+01 1.595942843345492257e+01
6.000000000000000000e+01 1.619094813405202871e+01
6.100000000000000000e+01 1.642403036775164082e+01
6.200000000000000000e+01 1.665527067730420185e+01
6.300000000000000000e+01 1.688028970636662507e+01
6.400000000000000000e+01 1.711019771318227356e+01
6.500000000000000000e+01 1.733585009413209477e+01
6.600000000000000000e+01 1.756394991756139490e+01
6.700000000000000000e+01 1.779270011182171984e+01
6.800000000000000000e+01 1.802268258814189039e+01
6.900000000000000000e+01 1.825951459138154931e+01
7.000000000000000000e+01 1.849235723941280440e+01
7.100000000000000000e+01 1.872271060274673360e+01
7.200000000000000000e+01 1.895384642872998171e+01
7.300000000000000000e+01 1.918793079613922004e+01
7.400000000000000000e+01 1.942389133677507829e+01
7.500000000000000000e+01 1.965811847121062783e+01
7.600000000000000000e+01 1.988782893383430661e+01
7.700000000000000000e+01 2.012049770298932572e+01
7.800000000000000000e+01 2.034443596890963590e+01
7.900000000000000000e+01 2.057083757822358905e+01
8.000000000000000000e+01 2.079799310063387807e+01
8.100000000000000000e+01 2.102061695408491460e+01
8.200000000000000000e+01 2.124512777295127819e+01
8.300000000000000000e+01 2.147090720652121831e+01
8.400000000000000000e+01 2.169941052960263761e+01
8.500000000000000000e+01 2.193481629336492844e+01
8.600000000000000000e+01 2.215879282112808113e+01
8.700000000000000000e+01 2.238438582947913602e+01
8.800000000000000000e+01 2.261132490260690631e+01
8.900000000000000000e+01 2.284108396339323832e+01
9.000000000000000000e+01 2.306798339081142402e+01
9.100000000000000000e+01 2.330043369852917579e+01
9.200000000000000000e+01 2.353178994398555801e+01
9.300000000000000000e+01 2.376003494084607581e+01
9.400000000000000000e+01 2.398443108759895637e+01
9.500000000000000000e+01 2.420812829970545721e+01
9.600000000000000000e+01 2.443387789545366928e+01
9.700000000000000000e+01 2.465869842404472223e+01
9.800000000000000000e+01 2.487892115268031645e+01
9.900000000000000000e+01 2.510107576608646696e+01
1.000000000000000000e+02 2.532596372071537161e+01
1.010000000000000000e+02 2.554976931649398608e+01
1.020000000000000000e+02 2.577295256182643968e+01
1.030000000000000000e+02 2.599560873188908516e+01
1.040000000000000000e+02 2.621874044811757187e+01
1.050000000000000000e+02 2.643676657529394092e+01
1.060000000000000000e+02 2.665131995088423977e+01
1.070000000000000000e+02 2.686707751714728687e+01
1.080000000000000000e+02 2.708165211696493913e+01
1.090000000000000000e+02 2.729406368994696308e+01
1.100000000000000000e+02 2.751246236705373605e+01
1.110000000000000000e+02 2.773098708911185284e+01
1.120000000000000000e+02 2.794637712795309170e+01
1.130000000000000000e+02 2.816233763775720078e+01
1.140000000000000000e+02 2.837293916063586252e+01
1.150000000000000000e+02 2.858733382296257375e+01
1.160000000000000000e+02 2.880009099268637840e+01
1.170000000000000000e+02 2.901428677517480281e+01
1.180000000000000000e+02 2.922816677314899536e+01
1.190000000000000000e+02 2.944454904594072175e+01
1.200000000000000000e+02 2.965571690191865528e+01
1.210000000000000000e+02 2.987171501329003931e+01
1.220000000000000000e+02 3.008633594183191562e+01
1.230000000000000000e+02 3.029469155736108021e+01
1.240000000000000000e+02 3.051024875949537929e+01
1.250000000000000000e+02 3.072418086907088863e+01
1.260000000000000000e+02 3.094038325668269707e+01
1.270000000000000000e+02 3.115054263108919486e+01
1.280000000000000000e+02 3.136552903844790308e+01
1.290000000000000000e+02 3.158107228066937466e+01
1.300000000000000000e+02 3.179830217057492092e+01
1.310000000000000000e+02 3.201410968919946498e+01
1.320000000000000000e+02 3.222799698403964186e+01
1.330000000000000000e+02 3.244081232279676641e+01
1.340000000000000000e+02 3.264988774210954858e+01
1.350000000000000000e+02 3.286327555207135731e+01
1.360000000000000000e+02 3.307302199308086443e+01
1.370000000000000000e+02 3.328346072171586201e+01
1.380000000000000000e+02 3.349778395470750780e+01
1.390000000000000000e+02 3.371161212425096920e+01
1.400000000000000000e+02 3.392199257988718131e+01
1.410000000000000000e+02 3.413172404252613745e+01
1.420000000000000000e+02 3.434653982387965243e+01
1.430000000000000000e+02 3.455619738295017385e+01
1.440000000000000000e+02 3.476911645297761311e+01
1.450000000000000000e+02 3.497717827627535314e+01
1.460000000000000000e+02 3.518979908018092573e+01
1.470000000000000000e+02 3.540351645267823244e+01
1.480000000000000000e+02 3.561364159561384213e+01
1.490000000000000000e+02 3.582455617134095149e+01
1.500000000000000000e+02 3.603422429719937981e+01
1.510000000000000000e+02 3.624116271516422216e+01
1.520000000000000000e+02 3.645955106043735583e+01
1.530000000000000000e+02 3.667005209694755763e+01
1.540000000000000000e+02 3.688924013705692317e+01
1.550000000000000000e+02 3.710263048442573819e+01
1.560000000000000000e+02 3.732040080697236561e+01
1.570000000000000000e+02 3.753106955407297107e+01
1.580000000000000000e+02 3.774265087618646675e+01
1.590000000000000000e+02 3.795596261484230638e+01
1.600000000000000000e+02 3.817383809812707796e+01
1.610000000000000000e+02 3.838456905775544925e+01
1.620000000000000000e+02 3.859024063344682531e+01
1.630000000000000000e+02 3.879880102208179693e+01
1.640000000000000000e+02 3.901401688063674555e+01
1.650000000000000000e+02 3.923013839057765040e+01
1.660000000000000000e+02 3.944795112824327532e+01
1.670000000000000000e+02 3.966473767299461883e+01
1.680000000000000000e+02 3.987954192505112161e+01
1.690000000000000000e+02 4.010070423135775286e+01
1.700000000000000000e+02 4.031230362959521329e+01
1.710000000000000000e+02 4.053005355466282822e+01
1.720000000000000000e+02 4.074882806049178186e+01
1.730000000000000000e+02 4.096921381535452156e+01
1.740000000000000000e+02 4.119654625754353106e+01
1.750000000000000000e+02 4.141787617838031110e+01
1.760000000000000000e+02 4.163565042587406850e+01
1.770000000000000000e+02 4.185085437813312836e+01
1.780000000000000000e+02 4.206875957771401886e+01
1.790000000000000000e+02 4.228302472123142053e+01
1.800000000000000000e+02 4.249838613378070562e+01
1.810000000000000000e+02 4.272013910422101191e+01
1.820000000000000000e+02 4.293821267260852181e+01
1.830000000000000000e+02 4.315520399814365504e+01
1.840000000000000000e+02 4.337167797229799504e+01
1.850000000000000000e+02 4.358827256044462928e+01
1.860000000000000000e+02 4.379830228162236949e+01
1.870000000000000000e+02 4.401584581778593730e+01
1.880000000000000000e+02 4.422919961310295633e+01
1.890000000000000000e+02 4.444522128167343311e+01
1.900000000000000000e+02 4.466093147019289944e+01
1.910000000000000000e+02 4.487568869866687038e+01
1.920000000000000000e+02 4.509045355706437164e+01
1.930000000000000000e+02 4.530481929993399604e+01
1.940000000000000000e+02 4.551972137849961086e+01
1.950000000000000000e+02 4.573902732736012666e+01
1.960000000000000000e+02 4.595726744003309960e+01
1.970000000000000000e+02 4.617552164247289426e+01
1.980000000000000000e+02 4.639474483756838907e+01
1.990000000000000000e+02 4.661164870000412463e+01
2.000000000000000000e+02 4.682806124716335461e+01
2.010000000000000000e+02 4.703835780555412072e+01
2.020000000000000000e+02 4.725493588429252867e+01
2.030000000000000000e+02 4.747007700994213764e+01
2.040000000000000000e+02 4.768590558380265776e+01
2.050000000000000000e+02 4.790182198225239318e+01
2.060000000000000000e+02 4.812042995087659847e+01
2.070000000000000000e+02 4.833259113895229575e+01
2.080000000000000000e+02 4.854737750426295406e+01
2.090000000000000000e+02 4.875650409467059632e+01
2.100000000000000000e+02 4.897398345763945571e+01
2.110000000000000000e+02 4.918879089834465645e+01
2.120000000000000000e+02 4.940125640793691986e+01
2.130000000000000000e+02 4.961600259154269565e+01
2.140000000000000000e+02 4.983518738105502166e+01
2.150000000000000000e+02 5.005235085391546335e+01
2.160000000000000000e+02 5.027197602911408580e+01
2.170000000000000000e+02 5.048409602299178545e+01
2.180000000000000000e+02 5.069544413239866998e+01
2.190000000000000000e+02 5.091028144210887518e+01
2.200000000000000000e+02 5.111625728263005186e+01
2.210000000000000000e+02 5.132763579678700694e+01
2.220000000000000000e+02 5.153734023070958159e+01
2.230000000000000000e+02 5.174463747579570594e+01
2.240000000000000000e+02 5.195446517265166619e+01
2.250000000000000000e+02 5.216838104634220485e+01
2.260000000000000000e+02 5.237854608183821625e+01
2.270000000000000000e+02 5.259512051471517680e+01
2.280000000000000000e+02 5.281574169722933476e+01
2.290000000000000000e+02 5.303458831570415555e+01
2.300000000000000000e+02 5.325150035843098095e+01
2.310000000000000000e+02 5.346710806945357319e+01
2.320000000000000000e+02 5.368116156837411523e+01
2.330000000000000000e+02 5.389459983740958648e+01
2.340000000000000000e+02 5.410401442623078339e+01
2.350000000000000000e+02 5.431727389865879019e+01
2.360000000000000000e+02 5.453520316644669919e+01
2.370000000000000000e+02 5.475336766242906350e+01
2.380000000000000000e+02 5.496962696995948505e+01
2.390000000000000000e+02 5.518131098413058311e+01
2.400000000000000000e+02 5.539297843389845610e+01
2.410000000000000000e+02 5.560323308825214639e+01
2.420000000000000000e+02 5.580917303423410658e+01
2.430000000000000000e+02 5.601991237178098970e+01
2.440000000000000000e+02 5.622882750231631377e+01
2.450000000000000000e+02 5.643970766345787382e+01
2.460000000000000000e+02 5.665169083774787140e+01
2.470000000000000000e+02 5.686764000457566937e+01
2.480000000000000000e+02 5.708084667411574742e+01
2.490000000000000000e+02 5.730016276824824217e+01
2.500000000000000000e+02 5.751739865808931285e+01
2.510000000000000000e+02 5.773448249461421256e+01
2.520000000000000000e+02 5.795133155705225647e+01
2.530000000000000000e+02 5.816539830781700715e+01
2.540000000000000000e+02 5.838712125288966348e+01
2.550000000000000000e+02 5.860890597894719178e+01
2.560000000000000000e+02 5.883293596798547753e+01
2.570000000000000000e+02 5.906047423270462815e+01
2.580000000000000000e+02 5.928633707514848794e+01
2.590000000000000000e+02 5.951732418374784572e+01
2.600000000000000000e+02 5.974637101511736148e+01
2.610000000000000000e+02 5.997684607872700724e+01
2.620000000000000000e+02 6.020324027538946865e+01
2.630000000000000000e+02 6.043343131743041852e+01
2.640000000000000000e+02 6.065897734810727826e+01
2.650000000000000000e+02 6.088329627000285171e+01
2.660000000000000000e+02 6.110776025629126451e+01
2.670000000000000000e+02 6.133413472052004067e+01
2.680000000000000000e+02 6.156149147463057147e+01
2.690000000000000000e+02 6.179274952716313862e+01
2.700000000000000000e+02 6.202282646184440296e+01
2.710000000000000000e+02 6.224942436403887314e+01
2.720000000000000000e+02 6.247968994651249375e+01
2.730000000000000000e+02 6.271208910353966814e+01
2.740000000000000000e+02 6.294894771818877643e+01
2.750000000000000000e+02 6.318164365094900603e+01
2.760000000000000000e+02 6.341275670145406451e+01
2.770000000000000000e+02 6.364930467953837478e+01
2.780000000000000000e+02 6.387841368020779242e+01
2.790000000000000000e+02 6.410730068054272124e+01
2.800000000000000000e+02 6.433037166460718481e+01
2.810000000000000000e+02 6.456005719847478019e+01
2.820000000000000000e+02 6.479016071592779724e+01
2.830000000000000000e+02 6.502261314970283479e+01
2.840000000000000000e+02 6.525900768196926549e+01
2.850000000000000000e+02 6.548410887126794933e+01
2.860000000000000000e+02 6.571361891777546305e+01
2.870000000000000000e+02 6.594533003539447691e+01
2.880000000000000000e+02 6.617233730156306137e+01
2.890000000000000000e+02 6.640165391772926284e+01
2.900000000000000000e+02 6.663603319556456483e+01
2.910000000000000000e+02 6.686940641327474566e+01
2.920000000000000000e+02 6.709655480702558350e+01
2.930000000000000000e+02 6.732558444966220179e+01
2.940000000000000000e+02 6.755802171812871393e+01
2.950000000000000000e+02 6.778966786971723479e+01
2.960000000000000000e+02 6.802148630358391301e+01
2.970000000000000000e+02 6.825046946476587095e+01
2.980000000000000000e+02 6.847913424026822327e+01
2.990000000000000000e+02 6.870242651403434309e+01
3.000000000000000000e+02 6.893059551720529043e+01
3.010000000000000000e+02 6.915572129159376402e+01
3.020000000000000000e+02 6.938359100498551868e+01
3.030000000000000000e+02 6.961132051544551302e+01
3.040000000000000000e+02 6.983432262219950815e+01
3.050000000000000000e+02 7.006076621660926662e+01
3.060000000000000000e+02 7.028474569434123964e+01
3.070000000000000000e+02 7.050611187759702148e+01
3.080000000000000000e+02 7.073244209717812225e+01
3.090000000000000000e+02 7.095470662908650183e+01
3.100000000000000000e+02 7.117600717880586103e+01
3.110000000000000000e+02 7.140496993002545878e+01
3.120000000000000000e+02 7.163336466535209013e+01
3.130000000000000000e+02 7.186294202726831770e+01
3.140000000000000000e+02 7.208805679523435117e+01
3.150000000000000000e+02 7.231658271879065580e+01
3.160000000000000000e+02 7.254385781987201653e+01
3.170000000000000000e+02 7.277535130150837972e+01
3.180000000000000000e+02 7.300557515848056767e+01
3.190000000000000000e+02 7.323400704313421272e+01
3.200000000000000000e+02 7.347438751143228330e+01
3.210000000000000000e+02 7.370577554292196965e+01
3.220000000000000000e+02 7.394007775527636284e+01
3.230000000000000000e+02 7.417084884980614845e+01
3.240000000000000000e+02 7.440641391935550075e+01
3.250000000000000000e+02 7.463480782956114012e+01
3.260000000000000000e+02 7.486711929028871282e+01
3.270000000000000000e+02 7.509634087110232770e+01
3.280000000000000000e+02 7.532685605424924802e+01
3.290000000000000000e+02 7.556142368750441562e+01
3.300000000000000000e+02 7.579537871642149582e+01
3.310000000000000000e+02 7.602950023458990358e+01
3.320000000000000000e+02 7.626114374404538410e+01
3.330000000000000000e+02 7.649597407847623742e+01
3.340000000000000000e+02 7.672721089240587844e+01
3.350000000000000000e+02 7.696055307916438437e+01
3.360000000000000000e+02 7.719320522730448886e+01
3.370000000000000000e+02 7.742233811517894537e+01
3.380000000000000000e+02 7.765832414436401621e+01
3.390000000000000000e+02 7.789241664223483497e+01
3.400000000000000000e+02 7.812318828611918775e+01
3.410000000000000000e+02 7.835597997132731507e+01
3.420000000000000000e+02 7.859080312719684969e+01
3.430000000000000000e+02 7.882317747254619178e+01
3.440000000000000000e+02 7.905657980874717339e+01
3.450000000000000000e+02 7.928653006809844328e+01
3.460000000000000000e+02 7.952058384117761136e+01
3.470000000000000000e+02 7.975718386546701311e+01
3.480000000000000000e+02 7.999197277264038064e+01
3.490000000000000000e+02 8.023051947173279075e+01
3.500000000000000000e+02 8.046178325159796429e+01
3.510000000000000000e+02 8.069458532791179550e+01
3.520000000000000000e+02 8.092900036741596637e+01
3.530000000000000000e+02 8.116640351439055223e+01
3.540000000000000000e+02 8.140310364922237341e+01
3.550000000000000000e+02 8.163712913028842877e+01
3.560000000000000000e+02 8.187270864177162366e+01
3.570000000000000000e+02 8.210768571382955372e+01
3.580000000000000000e+02 8.234302790665657312e+01
3.590000000000000000e+02 8.257339482753864957e+01
3.600000000000000000e+02 8.279948225257223271e+01
3.610000000000000000e+02 8.303108916010864959e+01
3.620000000000000000e+02 8.325692000548127680e+01
3.630000000000000000e+02 8.348339018653702226e+01
3.640000000000000000e+02 8.371206145601894377e+01
3.650000000000000000e+02 8.394067992450266047e+01
3.660000000000000000e+02 8.416686995245279945e+01
3.670000000000000000e+02 8.439459928148477275e+01
3.680000000000000000e+02 8.462471633261959880e+01
3.690000000000000000e+02 8.485255462161043738e+01
3.700000000000000000e+02 8.507843934616320780e+01
3.710000000000000000e+02 8.530693405110044125e+01
3.720000000000000000e+02 8.553988242976451772e+01
3.730000000000000000e+02 8.576500999360085586e+01
3.740000000000000000e+02 8.599439729738195126e+01
3.750000000000000000e+02 8.622251248911625510e+01
3.760000000000000000e+02 8.644888838159441491e+01
3.770000000000000000e+02 8.667431333617605560e+01
3.780000000000000000e+02 8.690799687817283825e+01
3.790000000000000000e+02 8.713589163335144860e+01
3.800000000000000000e+02 8.736096822020994068e+01
3.810000000000000000e+02 8.758549407946922827e+01
3.820000000000000000e+02 8.780920177369870316e+01
3.830000000000000000e+02 8.803587409831709465e+01
3.840000000000000000e+02 8.826367538120200606e+01
3.850000000000000000e+02 8.848768493374828381e+01
3.860000000000000000e+02 8.871638431788190360e+01
3.870000000000000000e+02 8.894436550572234523e+01
3.880000000000000000e+02 8.917452947958776122e+01
3.890000000000000000e+02 8.940677098363322273e+01
3.900000000000000000e+02 8.963503285939557941e+01
3.910000000000000000e+02 8.986518127997989325e+01
3.920000000000000000e+02 9.009626326833422638e+01
3.930000000000000000e+02 9.032744911633785989e+01
3.940000000000000000e+02 9.056449425588381530e+01
3.950000000000000000e+02 9.080288309149290171e+01
3.960000000000000000e+02 9.103780727851921029e+01
3.970000000000000000e+02 9.127302142460283108e+01
3.980000000000000000e+02 9.151036366151920731e+01
