# time (ps)	msd (pm2)
0.000000000000000000e+00 6.443752550606202849e-04
1.000000000000000000e+00 9.305161327298429041e-01
2.000000000000000000e+00 1.353434133711791443e+00
3.000000000000000000e+00 1.733824006763522885e+00
4.000000000000000000e+00 2.087764775073925438e+00
5.000000000000000000e+00 2.419335530363160736e+00
6.000000000000000000e+00 2.743668887629387321e+00
7.000000000000000000e+00 3.061185669621815375e+00
8.000000000000000000e+00 3.370597330126775315e+00
9.000000000000000000e+00 3.669730702063351391e+00
1.000000000000000000e+01 3.967275296352745784e+00
1.100000000000000000e+01 4.253579530018352095e+00
1.200000000000000000e+01 4.539461652429545246e+00
1.300000000000000000e+01 4.814980085223652395e+00
1.400000000000000000e+01 5.088354182775627343e+00
1.500000000000000000e+01 5.360923585446918160e+00
1.600000000000000000e+01 5.624237617282881629e+00
1.700000000000000000e+01 5.886778816950193338e+00
1.800000000000000000e+01 6.147397014205521870e+00
1.900000000000000000e+01 6.406208516129691333e+00
2.000000000000000000e+01 6.660670195050460762e+00
2.100000000000000000e+01 6.909455703008188010e+00
2.200000000000000000e+01 7.159545358447200414e+00
2.300000000000000000e+01 7.403550308463913154e+00
2.400000000000000000e+01 7.651001998884826349e+00
2.500000000000000000e+01 7.896374548692265627e+00
2.600000000000000000e+01 8.139636014046718770e+00
2.700000000000000000e+01 8.377890972739027831e+00
2.800000000000000000e+01 8.613828553527191900e+00
2.900000000000000000e+01 8.851161891910566126e+00
3.000000000000000000e+01 9.083870729515295395e+00
3.100000000000000000e+01 9.317825876196392798e+00
3.200000000000000000e+01 9.546928877844271355e+00
3.300000000000000000e+01 9.779390422499172786e+00
3.400000000000000000e+01 1.000880671174569692e+01
3.500000000000000000e+01 1.023729062644712862e+01
3.600000000000000000e+01 1.045603358310705211e+01
3.700000000000000000e+01 1.067740958410738372e+01
3.800000000000000000e+01 1.089699292851778800e+01
3.900000000000000000e+01 1.112037503303089991e+01
4.000000000000000000e+01 1.134350063340586523e+01
4.100000000000000000e+01 1.155904789501389907e+01
4.200000000000000000e+01 1.177433558602452024e+01
4.300000000000000000e+01 1.198375590250794787e+01
4.400000000000000000e+01 1.219656630315305357e+01
4.500000000000000000e+01 1.240997511869341707e+01
4.600000000000000000e+01 1.262292326783751051e+01
4.700000000000000000e+01 1.283446457811001373e+01
4.800000000000000000e+01 1.304084255725486408e+01
4.900000000000000000e+01 1.324570733049614013e+01
5.000000000000000000e+01 1.345420193388871510e+01
5.100000000000000000e+01 1.366777746480115319e+01
5.200000000000000000e+01 1.388273033355298658e+01
5.300000000000000000e+01 1.409562188509511671e+01
5.400000000000000000e+01 1.430391968213208287e+01
5.500000000000000000e+01 1.451713968812684818e+01
5.600000000000000000e+01 1.472953563162207047e+01
5.700000000000000000e+01 1.493283359217208428e+01
5.800000000000000000e+01 1.513963463382886943e+01
5.900000000000000000e+01 1.534985246308582774e+01
6.000000000000000000e+01 1.555618530030338498e+01
6.100000000000000000e+01 1.575913588888242778e+01
6.200000000000000000e+01 1.596492194763216865e+01
6.300000000000000000e+01 1.616741809187461243e+01
6.400000000000000000e+01 1.637336708532557950e+01
6.500000000000000000e+01 1.657746674950997701e+01
6.600000000000000000e+01 1.678239921530470014e+01
6.700000000000000000e+01 1.698374884603701673e+01
6.800000000000000000e+01 1.718488217647390925e+01
6.900000000000000000e+01 1.737862476149906144e+01
7.000000000000000000e+01 1.757829962872675011e+01
7.100000000000000000e+01 1.777745005478566398e+01
7.200000000000000000e+01 1.798023907157916312e+01
7.300000000000000000e+01 1.818207914222793065e+01
7.400000000000000000e+01 1.838231782039447282e+01
7.500000000000000000e+01 1.858002386039920850e+01
7.600000000000000000e+01 1.878444676677849401e+01
7.700000000000000000e+01 1.898902769647982680e+01
7.800000000000000000e+01 1.918928547816008390e+01
7.900000000000000000e+01 1.938600653020754905e+01
8.000000000000000000e+01 1.958207990570185331e+01
8.100000000000000000e+01 1.977928035453356870e+01
8.200000000000000000e+01 1.997777343457616794e+01
8.300000000000000000e+01 2.017812648507829465e+01
8.400000000000000000e+01 2.037783378223265274e+01
8.500000000000000000e+01 2.058363677980409889e+01
8.600000000000000000e+01 2.078623254300787693e+01
8.700000000000000000e+01 2.098515042447082735e+01
8.800000000000000000e+01 2.119234319053929738e+01
8.900000000000000000e+01 2.139758120946256170e+01
9.000000000000000000e+01 2.160272728907525774e+01
9.100000000000000000e+01 2.181546691853952780e+01
9.200000000000000000e+01 2.202067471263483611e+01
9.300000000000000000e+01 2.222656900147982384e+01
9.400000000000000000e+01 2.243585991475123720e+01
9.500000000000000000e+01 2.264290560619278025e+01
9.600000000000000000e+01 2.284985795575730094e+01
9.700000000000000000e+01 2.305901618699481403e+01
9.800000000000000000e+01 2.327221341148797862e+01
9.900000000000000000e+01 2.348890778034514071e+01
1.000000000000000000e+02 2.370313192875589436e+01
1.010000000000000000e+02 2.391652866347250850e+01
1.020000000000000000e+02 2.413162603724027377e+01
1.030000000000000000e+02 2.435153015672286259e+01
1.040000000000000000e+02 2.455836616748743850e+01
1.050000000000000000e+02 2.477208037606196100e+01
1.060000000000000000e+02 2.498441181688784596e+01
1.070000000000000000e+02 2.519448980082038503e+01
1.080000000000000000e+02 2.541131743288076450e+01
1.090000000000000000e+02 2.562583416924952928e+01
1.100000000000000000e+02 2.584082636314055748e+01
1.110000000000000000e+02 2.605391321600421506e+01
1.120000000000000000e+02 2.625941690391023187e+01
1.130000000000000000e+02 2.646799332274031258e+01
1.140000000000000000e+02 2.667809521844834464e+01
1.150000000000000000e+02 2.688936865006638044e+01
1.160000000000000000e+02 2.710274274754752000e+01
1.170000000000000000e+02 2.730728211157484964e+01
1.180000000000000000e+02 2.752405843630694804e+01
1.190000000000000000e+02 2.773215008112978097e+01
1.200000000000000000e+02 2.794571477946266569e+01
1.210000000000000000e+02 2.815342061853502997e+01
1.220000000000000000e+02 2.835954185393203630e+01
1.230000000000000000e+02 2.856535056961633856e+01
1.240000000000000000e+02 2.877006370778128996e+01
1.250000000000000000e+02 2.897761614728692692e+01
1.260000000000000000e+02 2.918020831229954837e+01
1.270000000000000000e+02 2.938316604129354559e+01
1.280000000000000000e+02 2.958333893573696827e+01
1.290000000000000000e+02 2.979106175325780725e+01
1.300000000000000000e+02 2.999975330261286999e+01
1.310000000000000000e+02 3.020600120327263127e+01
1.320000000000000000e+02 3.040925616880257820e+01
1.330000000000000000e+02 3.061714450579439628e+01
1.340000000000000000e+02 3.082516833365806974e+01
1.350000000000000000e+02 3.103856261899420943e+01
1.360000000000000000e+02 3.125109622239384777e+01
1.370000000000000000e+02 3.145934715667240056e+01
1.380000000000000000e+02 3.166835737101154535e+01
1.390000000000000000e+02 3.187799167478058138e+01
1.400000000000000000e+02 3.208655803050748290e+01
1.410000000000000000e+02 3.229184609732581634e+01
1.420000000000000000e+02 3.249954012233447997e+01
1.430000000000000000e+02 3.270392423174832430e+01
1.440000000000000000e+02 3.291205332006421713e+01
1.450000000000000000e+02 3.311397580998940526e+01
1.460000000000000000e+02 3.331856764924236103e+01
1.470000000000000000e+02 3.352632735002350017e+01
1.480000000000000000e+02 3.373345910271833503e+01
1.490000000000000000e+02 3.393987059713941079e+01
1.500000000000000000e+02 3.414756636423650349e+01
1.510000000000000000e+02 3.435401496900320950e+01
1.520000000000000000e+02 3.456921963074578485e+01
1.530000000000000000e+02 3.477898890802857323e+01
1.540000000000000000e+02 3.499053545194252735e+01
1.550000000000000000e+02 3.519653172726261658e+01
1.560000000000000000e+02 3.540749216398978660e+01
1.570000000000000000e+02 3.561468193553104555e+01
1.580000000000000000e+02 3.582287100237707733e+01
1.590000000000000000e+02 3.603449708593885248e+01
1.600000000000000000e+02 3.623939121630147753e+01
1.610000000000000000e+02 3.645101763765404002e+01
1.620000000000000000e+02 3.666157964010914583e+01
1.630000000000000000e+02 3.687319632633181499e+01
1.640000000000000000e+02 3.709304958905362781e+01
1.650000000000000000e+02 3.730092817241958869e+01
1.660000000000000000e+02 3.751754584303148476e+01
1.670000000000000000e+02 3.773421148922080448e+01
1.680000000000000000e+02 3.794665273115246151e+01
1.690000000000000000e+02 3.816167962844146899e+01
1.700000000000000000e+02 3.837870170485370380e+01
1.710000000000000000e+02 3.858993095105229543e+01
1.720000000000000000e+02 3.880276893747964806e+01
1.730000000000000000e+02 3.901773544496273161e+01
1.740000000000000000e+02 3.923861375269276408e+01
1.750000000000000000e+02 3.945005947804450841e+01
1.760000000000000000e+02 3.966266875727602326e+01
1.770000000000000000e+02 3.987775018343785405e+01
1.780000000000000000e+02 4.009087072839625421e+01
1.790000000000000000e+02 4.030937681910569381e+01
1.800000000000000000e+02 4.052727599146827231e+01
1.810000000000000000e+02 4.073979983117808956e+01
1.820000000000000000e+02 4.095432930372193425e+01
1.830000000000000000e+02 4.116842312384832780e+01
1.840000000000000000e+02 4.138055938477024398e+01
1.850000000000000000e+02 4.159267103755986739e+01
1.860000000000000000e+02 4.180133673312838027e+01
1.870000000000000000e+02 4.200410335554568775e+01
1.880000000000000000e+02 4.221244930855851862e+01
1.890000000000000000e+02 4.242083517578159046e+01
1.900000000000000000e+02 4.262892209356812145e+01
1.910000000000000000e+02 4.284186901093619326e+01
1.920000000000000000e+02 4.304877552420662568e+01
1.930000000000000000e+02 4.325928063266750456e+01
1.940000000000000000e+02 4.346434231783262447e+01
1.950000000000000000e+02 4.367015063849850520e+01
1.960000000000000000e+02 4.387860657850419699e+01
1.970000000000000000e+02 4.408541713547015917e+01
1.980000000000000000e+02 4.429567618601453205e+01
1.990000000000000000e+02 4.450012314086156096e+01
2.000000000000000000e+02 4.470595246449169480e+01
2.010000000000000000e+02 4.491424583215505351e+01
2.020000000000000000e+02 4.511534086186116355e+01
2.030000000000000000e+02 4.531933241751175956e+01
2.040000000000000000e+02 4.552550644124860924e+01
2.050000000000000000e+02 4.573508603829623809e+01
2.060000000000000000e+02 4.594207853150080467e+01
2.070000000000000000e+02 4.614893547215965697e+01
2.080000000000000000e+02 4.635715040107118767e+01
2.090000000000000000e+02 4.656657562921001414e+01
2.100000000000000000e+02 4.677691793980740442e+01
2.110000000000000000e+02 4.698209631282256282e+01
2.120000000000000000e+02 4.719659816627227400e+01
2.130000000000000000e+02 4.740866832112471485e+01
2.140000000000000000e+02 4.761706735659922884e+01
2.150000000000000000e+02 4.783267255005153373e+01
2.160000000000000000e+02 4.804334143246546063e+01
2.170000000000000000e+02 4.825439761985796849e+01
2.180000000000000000e+02 4.846935559408426286e+01
2.190000000000000000e+02 4.868269946202548937e+01
2.200000000000000000e+02 4.889445352225564534e+01
2.210000000000000000e+02 4.910365197281226557e+01
2.220000000000000000e+02 4.931416223402991506e+01
2.230000000000000000e+02 4.952180325074494505e+01
2.240000000000000000e+02 4.972833788929417409e+01
2.250000000000000000e+02 4.993537354425965447e+01
2.260000000000000000e+02 5.014362106120818652e+01
2.270000000000000000e+02 5.035095678251538942e+01
2.280000000000000000e+02 5.055302950659969952e+01
2.290000000000000000e+02 5.075887447479673398e+01
2.300000000000000000e+02 5.096640884760171986e+01
2.310000000000000000e+02 5.117183324268833644e+01
2.320000000000000000e+02 5.137737563954554076e+01
2.330000000000000000e+02 5.158791203550757842e+01
2.340000000000000000e+02 5.179639646856196578e+01
2.350000000000000000e+02 5.200995629636394568e+01
2.360000000000000000e+02 5.222488721356488384e+01
2.370000000000000000e+02 5.243439257455556657e+01
2.380000000000000000e+02 5.264455836333262795e+01
2.390000000000000000e+02 5.285777015291866121e+01
2.400000000000000000e+02 5.307702694054374604e+01
2.410000000000000000e+02 5.328824777341174723e+01
2.420000000000000000e+02 5.350486817478835633e+01
2.430000000000000000e+02 5.372207698004651633e+01
2.440000000000000000e+02 5.393564886621800980e+01
2.450000000000000000e+02 5.415230401711408348e+01
2.460000000000000000e+02 5.436855366369334064e+01
2.470000000000000000e+02 5.458394358774106792e+01
2.480000000000000000e+02 5.479598385534778515e+01
2.490000000000000000e+02 5.500498516481960820e+01
2.500000000000000000e+02 5.521894536903402440e+01
2.510000000000000000e+02 5.542823028415892850e+01
2.520000000000000000e+02 5.563443834475738470e+01
2.530000000000000000e+02 5.584309499423279988e+01
2.540000000000000000e+02 5.605404101590667665e+01
2.550000000000000000e+02 5.626781800125275623e+01
2.560000000000000000e+02 5.647958904447466466e+01
2.570000000000000000e+02 5.669244843272677059e+01
2.580000000000000000e+02 5.690614785710432955e+01
2.590000000000000000e+02 5.712382489507541550e+01
2.600000000000000000e+02 5.734165176916030759e+01
2.610000000000000000e+02 5.755838094237056879e+01
2.620000000000000000e+02 5.777067012516887701e+01
2.630000000000000000e+02 5.798393677602786767e+01
2.640000000000000000e+02 5.819740594578749437e+01
2.650000000000000000e+02 5.841032297724542133e+01
2.660000000000000000e+02 5.862368998665287023e+01
2.670000000000000000e+02 5.883664174734121133e+01
2.680000000000000000e+02 5.904510453106141910e+01
2.690000000000000000e+02 5.925386047070377771e+01
2.700000000000000000e+02 5.946258115556992863e+01
2.710000000000000000e+02 5.967643230792943854e+01
2.720000000000000000e+02 5.987915733354603987e+01
2.730000000000000000e+02 6.009010917392774331e+01
2.740000000000000000e+02 6.029870477265760798e+01
2.750000000000000000e+02 6.050942285547596811e+01
2.760000000000000000e+02 6.071041466896518557e+01
2.770000000000000000e+02 6.091430189266233697e+01
2.780000000000000000e+02 6.111911449484489367e+01
2.790000000000000000e+02 6.132552686415946397e+01
2.800000000000000000e+02 6.153390324860613703e+01
2.810000000000000000e+02 6.173891539495293301e+01
2.820000000000000000e+02 6.194563179650022278e+01
2.830000000000000000e+02 6.214860365536905107e+01
2.840000000000000000e+02 6.234661828787477589e+01
2.850000000000000000e+02 6.255024686517889165e+01
2.860000000000000000e+02 6.275643002469811904e+01
2.870000000000000000e+02 6.296402787032248227e+01
2.880000000000000000e+02 6.316722120399109741e+01
2.890000000000000000e+02 6.336479162512546992e+01
2.900000000000000000e+02 6.357025695527068621e+01
2.910000000000000000e+02 6.377279303614693617e+01
2.920000000000000000e+02 6.397499671514152908e+01
2.930000000000000000e+02 6.417976723075304335e+01
2.940000000000000000e+02 6.437418728310869653e+01
2.950000000000000000e+02 6.458084996878086770e+01
2.960000000000000000e+02 6.478597374421499921e+01
2.970000000000000000e+02 6.498949041513564850e+01
2.980000000000000000e+02 6.519797549555015337e+01
2.990000000000000000e+02 6.539940271445523479e+01
3.000000000000000000e+02 6.560119296341640904e+01
3.010000000000000000e+02 6.580726263188022074e+01
3.020000000000000000e+02 6.600694784163424345e+01
3.030000000000000000e+02 6.621044626981642978e+01
3.040000000000000000e+02 6.641232598429263589e+01
3.050000000000000000e+02 6.661836578612029314e+01
3.060000000000000000e+02 6.682399487635493074e+01
3.070000000000000000e+02 6.703191700970457134e+01
3.080000000000000000e+02 6.723492753775940400e+01
3.090000000000000000e+02 6.743742114720279801e+01
3.100000000000000000e+02 6.763811818689249833e+01
3.110000000000000000e+02 6.783791195143157893e+01
3.120000000000000000e+02 6.803447074290048135e+01
3.130000000000000000e+02 6.823380209191292067e+01
3.140000000000000000e+02 6.843280879198067623e+01
3.150000000000000000e+02 6.862521590716129083e+01
3.160000000000000000e+02 6.882081474295222279e+01
3.170000000000000000e+02 6.902414152182019791e+01
3.180000000000000000e+02 6.921957607311306049e+01
3.190000000000000000e+02 6.941764012701099773e+01
3.200000000000000000e+02 6.960994310726741219e+01
3.210000000000000000e+02 6.980538550510915741e+01
3.220000000000000000e+02 6.999947662625810096e+01
3.230000000000000000e+02 7.019540102156734918e+01
3.240000000000000000e+02 7.038988733791958907e+01
3.250000000000000000e+02 7.058320480303117961e+01
3.260000000000000000e+02 7.077346820671412786e+01
3.270000000000000000e+02 7.096445796259523320e+01
3.280000000000000000e+02 7.115890316166370155e+01
3.290000000000000000e+02 7.135500409735823268e+01
3.300000000000000000e+02 7.155141708845124526e+01
3.310000000000000000e+02 7.174454533736383155e+01
3.320000000000000000e+02 7.193802359960552906e+01
3.330000000000000000e+02 7.212651748972659504e+01
3.340000000000000000e+02 7.231958413620631632e+01
3.350000000000000000e+02 7.251271818098798860e+01
3.360000000000000000e+02 7.271219315462454347e+01
3.370000000000000000e+02 7.290620381234153058e+01
3.380000000000000000e+02 7.310291771901123070e+01
3.390000000000000000e+02 7.329957650415040860e+01
3.400000000000000000e+02 7.349426745712356990e+01
3.410000000000000000e+02 7.369384800620325393e+01
3.420000000000000000e+02 7.389434596477984485e+01
3.430000000000000000e+02 7.409608558623749275e+01
3.440000000000000000e+02 7.429689137355059358e+01
3.450000000000000000e+02 7.449362819508839095e+01
3.460000000000000000e+02 7.469704123825276554e+01
3.470000000000000000e+02 7.489864185027043675e+01
3.480000000000000000e+02 7.510318151426822908e+01
3.490000000000000000e+02 7.529913556880356396e+01
3.500000000000000000e+02 7.549619445758123959e+01
3.510000000000000000e+02 7.568880220306739659e+01
3.520000000000000000e+02 7.588678372049832888e+01
3.530000000000000000e+02 7.608806605588870298e+01
3.540000000000000000e+02 7.628287578475705288e+01
3.550000000000000000e+02 7.647594406651931820e+01
3.560000000000000000e+02 7.667253728700030990e+01
3.570000000000000000e+02 7.686371039816467032e+01
3.580000000000000000e+02 7.705487160255840706e+01
3.590000000000000000e+02 7.725508950833430788e+01
3.600000000000000000e+02 7.745260845732909161e+01
3.610000000000000000e+02 7.765014805167793099e+01
3.620000000000000000e+02 7.784734168672878241e+01
3.630000000000000000e+02 7.804775802790788930e+01
3.640000000000000000e+02 7.824395876276568629e+01
3.650000000000000000e+02 7.844183350363925911e+01
3.660000000000000000e+02 7.864140230339677373e+01
3.670000000000000000e+02 7.884496860420927078e+01
3.680000000000000000e+02 7.904507400408422768e+01
3.690000000000000000e+02 7.924786070572508834e+01
3.700000000000000000e+02 7.944807891574561154e+01
3.710000000000000000e+02 7.964651171899167537e+01
3.720000000000000000e+02 7.984356664379509994e+01
3.730000000000000000e+02 8.004103649562895839e+01
3.740000000000000000e+02 8.023838966500034076e+01
3.750000000000000000e+02 8.043573700936764226e+01
3.760000000000000000e+02 8.063775251251009024e+01
3.770000000000000000e+02 8.083610148251442240e+01
3.780000000000000000e+02 8.103173760757381672e+01
3.790000000000000000e+02 8.122570594876744110e+01
3.800000000000000000e+02 8.142541060330262326e+01
3.810000000000000000e+02 8.162016269249845379e+01
3.820000000000000000e+02 8.181187173835756710e+01
3.830000000000000000e+02 8.201040631515445511e+01
3.840000000000000000e+02 8.220564783069499981e+01
3.850000000000000000e+02 8.240093758235215660e+01
3.860000000000000000e+02 8.259624540927526937e+01
3.870000000000000000e+02 8.278922124272173733e+01
3.880000000000000000e+02 8.298100452946303562e+01
3.890000000000000000e+02 8.317616452516489289e+01
3.900000000000000000e+02 8.337068861946528386e+01
3.910000000000000000e+02 8.356784316125340695e+01
3.920000000000000000e+02 8.376295841387208441e+01
3.930000000000000000e+02 8.396367656754796371e+01
3.940000000000000000e+02 8.415904235011460344e+01
3.950000000000000000e+02 8.435296230199055856e+01
3.960000000000000000e+02 8.455086404712145054e+01
3.970000000000000000e+02 8.474805308123985981e+01
3.980000000000000000e+02 8.494678494164595861e+01
